#Wave		#Intensity
2109.224609	3881.861572
2107.712891	3838.858398
2106.201172	3887.636475
2104.687500	3767.761963
2103.175781	3766.947510
2101.662109	3866.938232
2100.150391	3816.537354
2098.636719	3825.624023
2097.123047	3857.827393
2095.607422	3766.183350
2094.093750	3856.162109
2092.578125	3880.086182
2091.064453	3811.597412
2089.548828	3739.838867
2088.033203	3851.187012
2086.517578	3776.153076
2085.000000	3877.553711
2083.484375	3792.656738
2081.966797	3824.798096
2080.449219	3789.375732
2078.931641	3841.270508
2077.414063	3837.149902
2075.894531	3781.989990
2074.376953	3802.576172
2072.857422	3696.428223
2071.337891	3791.068359
2069.818359	3809.994141
2068.298828	3840.425049
2066.777344	3754.092529
2065.257813	3848.638916
2063.736328	3683.446045
2062.214844	3861.775635
2060.693359	3704.865723
2059.171875	3715.568848
2057.648438	3691.779785
2056.126953	3823.981445
2054.603516	3831.368896
2053.080078	3736.999268
2051.556641	3785.423096
2050.033203	3845.309814
2048.507813	3741.156982
2046.984375	3801.027344
2045.458984	3687.092041
2043.933594	3781.369141
2042.408203	3754.339600
2040.882813	3789.580078
2039.355469	3775.664795
2037.830078	3747.016113
2036.302734	3747.851563
2034.775391	3688.118408
2033.248047	3806.803467
2031.718750	3755.264648
2030.191406	3803.539795
2028.662109	3717.676270
2027.134766	3729.963623
2025.605469	3756.959473
2024.076172	3716.927979
2022.544922	3747.183350
2021.015625	3725.143311
2019.484375	3748.850098
2017.955078	3741.517090
2016.423828	3737.452881
2014.892578	3715.433350
2013.359375	3714.640625
2011.828125	3798.698730
2010.294922	3788.099854
2008.761719	3753.040039
2007.230469	3807.683350
2005.695313	3797.089355
2004.162109	3722.929688
2002.628906	3797.100342
2001.093750	3825.618896
1999.558594	3784.079590
1998.023438	3692.071045
1996.488281	3802.006836
1994.953125	3732.824219
1993.417969	3793.877197
1991.880859	3797.951172
1990.343750	3789.008301
1988.806641	3765.430176
1987.269531	3749.993164
1985.732422	3705.297607
1984.193359	3719.138672
1982.656250	3815.856689
1981.117188	3728.930176
1979.578125	3708.643799
1978.039063	3802.053955
1976.500000	3755.780029
1974.958984	3698.161621
1973.417969	3776.906494
1971.878906	3815.049561
1970.337891	3715.272949
1968.796875	3709.617676
1967.253906	3703.964355
1965.712891	3742.090088
1964.169922	3674.833984
1962.626953	3725.915039
1961.083984	3702.439209
1959.541016	3722.712891
1957.998047	3649.039063
1956.455078	3716.274902
1954.910156	3709.010498
1953.365234	3774.586182
1951.820313	3749.511230
1950.275391	3774.602539
1948.730469	3734.979980
1947.183594	3708.312012
1945.638672	3741.480225
1944.091797	3722.904785
1942.544922	3743.125977
1940.998047	3743.948242
1939.449219	3751.232178
1937.902344	3735.900391
1936.353516	3730.264160
1934.804688	3813.427002
1933.255859	3773.879395
1931.707031	3692.389404
1930.158203	3714.195557
1928.607422	3660.175781
1927.058594	3662.625977
1925.507813	3681.199463
1923.957031	3665.910889
1922.406250	3694.146240
1920.853516	3691.752441
1919.302734	3674.860107
1917.750000	3656.364014
1916.197266	3624.992432
1914.644531	3699.897461
1913.091797	3855.256348
1911.539063	3769.143799
1909.984375	3700.766846
1908.431641	3775.592041
1906.876953	3602.699951
1905.322266	3690.377930
1903.767578	3704.066162
1902.210938	3735.429199
1900.656250	3651.075684
1899.099609	3672.796387
1897.542969	3688.082520
1895.986328	3770.812988
1894.429688	3726.663574
1892.873047	3661.663818
1891.314453	3676.938965
1889.755859	3700.230713
1888.199219	3715.490967
1886.640625	3615.261719
1885.080078	3644.965576
1883.521484	3777.265137
1881.960938	3659.453857
1880.402344	3780.476074
1878.841797	3707.576416
1877.281250	3711.598389
1875.720703	3633.939209
1874.158203	3694.017578
1872.597656	3569.968994
1871.035156	3646.040771
1869.472656	3624.467529
1867.910156	3673.297607
1866.347656	3605.341309
1864.783203	3686.138428
1863.220703	3704.545654
1861.656250	3635.026855
1860.091797	3602.295410
1858.527344	3766.112061
1856.962891	3718.988770
1855.396484	3735.771973
1853.832031	3728.595703
1852.265625	3742.176514
1850.699219	3774.905273
1849.132813	3686.337891
1847.566406	3719.064453
1845.998047	3705.517822
1844.431641	3666.459961
1842.863281	3665.685547
1841.294922	3597.957764
1839.726563	3767.734131
1838.156250	3743.036621
1836.587891	3715.163086
1835.017578	3758.976563
1833.449219	3754.997803
1831.878906	3765.349609
1830.306641	3675.414795
1828.736328	3666.681641
1827.166016	3707.276123
1825.593750	3658.770020
1824.021484	3667.540039
1822.449219	3779.662598
1820.876953	3732.761230
1819.304688	3687.469238
1817.730469	3697.814209
1816.158203	3697.033203
1814.583984	3712.136963
1813.009766	3735.174316
1811.435547	3683.577637
1809.859375	3690.736816
1808.285156	3712.176514
1806.708984	3665.376953
1805.132813	3680.467041
1803.556641	3711.411377
1801.980469	3729.656494
1800.404297	3722.527344
1798.826172	3751.857422
1797.248047	3713.031494
1795.671875	3704.325439
1794.093750	3774.825928
1792.513672	3640.995361
1790.935547	3679.811279
1789.355469	3648.956055
1787.777344	3613.365234
1786.197266	3715.457764
1784.617188	3725.747314
1783.035156	3755.013184
1781.455078	3692.545898
1779.873047	3772.399658
1778.292969	3695.728027
1776.710938	3663.339600
1775.128906	3662.565674
1773.544922	3718.661865
1771.962891	3776.313721
1770.378906	3778.674072
1768.794922	3709.990723
1767.212891	3734.460938
1765.626953	3725.781738
1764.042969	3838.590088
1762.458984	3782.570557
1760.873047	3814.889404
1759.287109	3719.479980
1757.701172	3728.152344
1756.115234	3728.940430
1754.529297	3728.152344
1752.941406	3763.598145
1751.355469	3825.804688
1749.767578	3727.363281
1748.179688	3780.104492
1746.591797	3752.546387
1745.001953	3704.541504
1743.414063	3689.597656
1741.824219	3734.436279
1740.234375	3684.892090
1738.644531	3772.166992
1737.054688	3832.679443
1735.462891	3772.143311
1733.873047	3763.488525
1732.281250	3709.276367
1730.689453	3736.764893
1729.097656	3706.136963
1727.505859	3863.929443
1725.912109	3779.916016
1724.320313	3868.572266
1722.726563	3790.869385
1721.132813	3862.229004
1719.539063	3853.569580
1717.945313	3821.392578
1716.349609	3914.648193
1714.755859	3935.763428
1713.160156	3906.722900
1711.564453	4001.467285
1709.968750	3963.026123
1708.371094	4053.019775
1706.775391	3912.809814
1705.177734	4034.083984
1703.580078	3864.200195
1701.982422	3996.385986
1700.384766	3939.220215
1698.787109	4051.000488
1697.187500	4040.759766
1695.587891	4002.381348
1693.990234	4059.367920
1692.390625	4052.256836
1690.789063	4042.023438
1689.189453	4072.408936
1687.587891	4077.792725
1685.988281	4162.807617
1684.386719	4133.825195
1682.785156	4104.854980
1681.181641	4208.534668
1679.580078	4138.997070
1677.976563	4202.070313
1676.373047	4196.500977
1674.769531	4142.600586
1673.166016	4204.073242
1671.562500	4284.221680
1669.957031	4348.754395
1668.353516	4435.068848
1666.748047	4374.943359
1665.142578	4454.986328
1663.537109	4538.108398
1661.929688	4591.622070
1660.324219	4520.620605
1658.716797	4785.706055
1657.109375	4854.687012
1655.501953	4814.776855
1653.894531	4958.353516
1652.285156	5072.333008
1650.677734	5080.580566
1649.068359	5045.316895
1647.458984	5269.503418
1645.849609	5212.469238
1644.240234	5250.182617
1642.628906	5329.797363
1641.019531	5373.678223
1639.408203	5415.987305
1637.796875	5569.988770
1636.185547	5581.213867
1634.572266	5666.875488
1632.960938	5695.130371
1631.347656	5859.791016
1629.734375	5991.833984
1628.121094	5878.991211
1626.507813	6102.376953
1624.894531	6190.914063
1623.279297	6183.401855
1621.664063	6389.548340
1620.048828	6587.867188
1618.433594	6612.772949
1616.818359	6558.758301
1615.203125	6628.519531
1613.585938	6658.039063
1611.968750	6599.409180
1610.351563	6577.905762
1608.734375	6884.077148
1607.117188	6726.538086
1605.498047	6908.951660
1603.878906	6830.248047
1602.261719	7026.458984
1600.640625	7183.987305
1599.021484	7256.548828
1597.402344	7529.706055
1595.781250	7538.900391
1594.162109	7526.493164
1592.541016	7440.060547
1590.919922	7560.288574
1589.296875	7566.382813
1587.675781	7478.453613
1586.052734	7566.233887
1584.429688	7401.308594
1582.806641	7515.252441
1581.183594	7408.927246
1579.560547	7445.835938
1577.935547	7247.209473
1576.312500	7297.986816
1574.687500	7336.432617
1573.062500	7181.028809
1571.435547	7085.674316
1569.810547	7093.385254
1568.183594	7074.957031
1566.558594	7064.221191
1564.931641	7010.461914
1563.304688	7088.853516
1561.675781	7138.026367
1560.048828	6861.604004
1558.419922	7176.426270
1556.791016	7297.694824
1555.162109	7351.382324
1553.533203	7414.252930
1551.904297	7671.924316
1550.273438	7673.348145
1548.642578	7791.310547
1547.011719	7717.585449
1545.380859	7781.839844
1543.750000	7591.682129
1542.119141	7490.467285
1540.486328	7424.526367
1538.853516	7301.949707
1537.220703	7125.835449
1535.587891	7135.021973
1533.955078	6955.957031
1532.320313	7105.947266
1530.685547	7018.752930
1529.052734	6998.892090
1527.416016	7150.304199
1525.781250	6943.906250
1524.146484	7017.311035
1522.509766	6902.719238
1520.873047	6940.959473
1519.236328	6710.341797
1517.599609	6783.730957
1515.962891	6698.295898
1514.324219	6539.623535
1512.687500	6530.585938
1511.048828	6559.698730
1509.410156	6393.529297
1507.771484	6430.283691
1506.130859	6187.968262
1504.492188	6143.948730
1502.851563	6180.731445
1501.210938	6103.206055
1499.570313	5989.147461
1497.927734	5974.147949
1496.287109	6050.529297
1494.644531	5930.463867
1493.001953	5930.708008
1491.359375	5955.302246
1489.716797	5903.805176
1488.074219	5859.936523
1486.429688	5768.937012
1484.785156	5793.542969
1483.140625	5638.743652
1481.496094	5631.447266
1479.851563	5804.988770
1478.207031	5896.413086
1476.560547	5671.850586
1474.914063	5872.605469
1473.267578	5894.111816
1471.621094	5971.773926
1469.972656	5912.812012
1468.326172	5875.118164
1466.677734	6028.583008
1465.029297	5928.695313
1463.380859	6045.688477
1461.732422	6183.854492
1460.082031	6170.391113
1458.431641	6206.939941
1456.783203	6214.687012
1455.132813	6208.797363
1453.480469	6080.245117
1451.830078	6048.647461
1450.177734	6023.117676
1448.527344	5937.062500
1446.875000	5858.609375
1445.220703	5814.982910
1443.568359	5812.209961
1441.916016	5718.712402
1440.261719	5746.195313
1438.607422	5692.049316
1436.953125	5476.237793
1435.298828	5500.732422
1433.642578	5473.860840
1431.988281	5324.681152
1430.332031	5251.055176
1428.675781	5077.835938
1427.019531	5054.095703
1425.361328	4995.663086
1423.705078	4932.729980
1422.046875	4880.380371
1420.388672	4883.843262
1418.730469	4842.078613
1417.072266	4705.380371
1415.412109	4760.110352
1413.753906	4760.581055
1412.093750	4785.150391
1410.433594	4793.144043
1408.773438	4888.454102
1407.111328	4925.020020
1405.451172	5110.551270
1403.789063	5359.192871
1402.126953	5467.833008
1400.464844	5687.713379
1398.802734	5838.333496
1397.138672	5877.647949
1395.474609	5823.764160
1393.812500	5714.308594
1392.146484	5594.383789
1390.482422	5495.538086
1388.818359	5525.872070
1387.152344	5454.106445
1385.486328	5467.924805
1383.820313	5483.237305
1382.154297	5633.568359
1380.488281	5828.832031
1378.820313	6055.501465
1377.154297	6142.636719
1375.486328	6271.704590
1373.818359	6243.357422
1372.148438	6261.470215
1370.480469	6156.738770
1368.810547	6056.545898
1367.140625	5977.358887
1365.470703	5944.613281
1363.800781	5772.690430
1362.130859	5777.411621
1360.458984	5723.785156
1358.787109	5771.888672
1357.115234	5761.651855
1355.443359	5726.002930
1353.771484	5881.691895
1352.097656	5964.087891
1350.423828	6215.274902
1348.751953	6403.615234
1347.076172	6559.017090
1345.402344	6859.178223
1343.728516	7217.423828
1342.052734	7554.617676
1340.376953	7991.632813
1338.701172	8307.622070
1337.025391	8545.917969
1335.347656	8818.403320
1333.671875	8879.077148
1331.994141	8944.195313
1330.316406	8876.662109
1328.638672	8895.566406
1326.960938	8869.778320
1325.281250	8922.923828
1323.601563	8641.063477
1321.921875	8677.861328
1320.242188	8256.290039
1318.562500	8080.395508
1316.880859	7831.689941
1315.201172	7647.041504
1313.519531	7510.053223
1311.837891	7285.419922
1310.154297	7046.022949
1308.472656	6941.944336
1306.789063	6943.383789
1305.105469	6677.484863
1303.421875	6570.584473
1301.738281	6356.843262
1300.054688	6236.701660
1298.369141	6057.256348
1296.683594	5768.106445
1294.998047	5676.354004
1293.312500	5529.773926
1291.626953	5389.188965
1289.939453	5275.345703
1288.253906	5194.154785
1286.566406	5095.219727
1284.878906	5208.150391
1283.189453	5122.583496
1281.501953	5192.519043
1279.812500	5340.878418
1278.123047	5395.933594
1276.433594	5406.575195
1274.744141	5575.497070
1273.052734	5543.203125
1271.363281	5512.400879
1269.671875	5418.044434
1267.980469	5453.792480
1266.289063	5287.083984
1264.595703	5287.388184
1262.904297	5269.967285
1261.210938	5224.497070
1259.517578	5187.904297
1257.824219	5056.861816
1256.128906	4979.001953
1254.435547	4954.289551
1252.740234	4979.739258
1251.044922	4869.503418
1249.349609	4958.357910
1247.652344	4977.891602
1245.957031	4932.572266
1244.259766	4941.788574
1242.562500	4939.215332
1240.865234	4955.788574
1239.167969	4947.323242
1237.468750	4906.474609
1235.769531	4961.308594
1234.072266	4811.587891
1232.371094	4904.666504
1230.671875	4900.631348
1228.972656	4871.599609
1227.271484	4892.564941
1225.570313	4784.178223
1223.869141	4733.148926
1222.167969	4589.585938
1220.464844	4663.470703
1218.763672	4536.139648
1217.060547	4612.938477
1215.357422	4507.692383
1213.654297	4489.075195
1211.949219	4477.801270
1210.246094	4382.922363
1208.541016	4405.406250
1206.835938	4400.022461
1205.130859	4429.820801
1203.423828	4414.174316
1201.718750	4423.442383
1200.011719	4336.024414
1198.304688	4289.652344
1196.597656	4278.441895
1194.888672	4311.152832
1193.181641	4299.941895
1191.472656	4279.956055
1189.763672	4278.996094
1188.054688	4371.641602
1186.343750	4268.303223
1184.634766	4287.812500
1182.923828	4339.467285
1181.212891	4348.722168
1179.501953	4436.862793
1177.791016	4402.272461
1176.078125	4354.554199
1174.365234	4277.658203
1172.652344	4346.758789
1170.939453	4312.217773
1169.226563	4381.278809
1167.511719	4362.789551
1165.798828	4382.224609
1164.083984	4365.200684
1162.369141	4368.590820
1160.652344	4272.881348
1158.937500	4245.693359
1157.220703	4155.879883
1155.503906	4150.574707
1153.787109	4082.662842
1152.070313	4138.514160
1150.351563	4079.366943
1148.632813	4088.632324
1146.916016	4147.353027
1145.195313	4166.778320
1143.476563	4244.356445
1141.757813	4080.582275
1140.037109	4134.889648
1138.316406	4170.282715
1136.595703	4058.933105
1134.875000	4085.611572
1133.152344	4016.440918
1131.429688	4016.984619
1129.708984	3998.659424
1127.984375	3994.853027
1126.261719	3863.380859
1124.539063	3945.181396
1122.814453	3823.929932
1121.089844	3753.475098
1119.365234	3812.052734
1117.640625	3838.722656
1115.914063	3774.106201
1114.187500	3793.529785
1112.462891	3728.951904
1110.734375	3791.810303
1109.007813	3678.047119
1107.281250	3662.741455
1105.552734	3705.315430
1103.824219	3627.810547
1102.095703	3644.341064
1100.367188	3587.126221
1098.636719	3563.183594
1096.908203	3495.895996
1095.177734	3443.087158
1093.447266	3517.420166
1091.714844	3401.085205
1089.984375	3498.495117
1088.251953	3491.925537
1086.519531	3431.959717
1084.787109	3511.980469
1083.054688	3515.509277
1081.320313	3465.673340
1079.585938	3421.627441
1077.851563	3471.303467
1076.117188	3421.510742
1074.382813	3452.431396
1072.648438	3435.798340
1070.912109	3363.002441
1069.175781	3353.596436
1067.439453	3430.570313
1065.701172	3436.984375
1063.964844	3322.523682
1062.226563	3354.853760
1060.488281	3346.896729
1058.750000	3315.935547
1057.011719	3384.184814
1055.271484	3292.862061
1053.531250	3270.555176
1051.791016	3358.880127
1050.050781	3329.386230
1048.310547	3322.881104
1046.568359	3324.992920
1044.826172	3374.469238
1043.083984	3439.707520
1041.341797	3387.272217
1039.599609	3395.103271
1037.855469	3460.291016
1036.113281	3502.509521
1034.369141	3494.540771
1032.623047	3523.834229
1030.878906	3497.238037
1029.132813	3453.465332
1027.386719	3522.844238
1025.640625	3646.596436
1023.894531	3632.877930
1022.148438	3672.114502
1020.400391	3573.981934
1018.652344	3750.532715
1016.904297	3659.576660
1015.156250	3781.695313
1013.406250	3816.562744
1011.658203	3775.671387
1009.908203	3746.228760
1008.158203	3809.647949
1006.408203	3701.664063
1004.656250	3692.246338
1002.904297	3715.664307
1001.152344	3693.402832
999.400391	3782.441650
997.648438	3704.541992
995.896484	3542.535645
994.142578	3584.494629
992.388672	3448.248291
990.634766	3471.681885
988.878906	3460.908447
987.125000	3447.290771
985.369141	3425.133789
983.613281	3435.735107
981.857422	3466.260498
980.099609	3419.919189
978.343750	3473.199219
976.585938	3498.003418
974.828125	3488.663330
973.070313	3520.561279
971.310547	3417.397217
969.552734	3435.084229
967.792969	3503.914551
966.033203	3474.693848
964.273438	3594.611084
962.511719	3625.018311
960.750000	3638.376221
958.990234	3751.075195
957.226563	3775.748291
955.464844	3757.852051
953.703125	3735.708740
951.939453	3566.110107
950.175781	3468.887451
948.412109	3465.250000
946.648438	3358.176270
944.882813	3329.066162
943.117188	3322.629883
941.351563	3235.486084
939.585938	3214.917480
937.820313	3184.450928
936.052734	3262.951904
934.285156	3257.951416
932.517578	3214.765869
930.750000	3223.918213
928.982422	3210.447266
927.212891	3201.222168
925.443359	3235.804688
923.673828	3276.021484
921.904297	3278.085449
920.132813	3271.676025
918.361328	3244.093750
916.591797	3209.467041
914.818359	3169.211914
913.046875	3150.135742
911.275391	3211.460693
909.501953	3179.692627
907.728516	3121.153809
905.955078	3126.065430
904.179688	3095.747559
902.406250	3128.837158
900.630859	3094.306641
898.855469	3127.380615
897.080078	3111.166992
895.302734	3151.258057
893.525391	3082.982666
891.750000	3028.806641
889.970703	3154.681885
888.193359	3062.548096
886.416016	3123.689453
884.636719	3186.207275
882.857422	3127.853271
881.078125	3106.051514
879.296875	3110.944824
877.517578	3073.710449
875.736328	3025.262695
873.955078	2978.240723
872.173828	3001.399414
870.390625	3027.352783
868.609375	2997.192627
866.826172	3118.483398
865.042969	3065.885498
863.259766	3045.547363
861.474609	3107.890137
859.689453	3063.736084
857.904297	3144.251953
856.119141	3191.124268
854.333984	3061.586670
852.546875	3072.066895
850.761719	2991.591064
848.974609	3072.028076
847.185547	2997.183350
845.398438	3120.927246
843.609375	3037.718018
841.822266	3071.946777
840.031250	3086.597168
838.242188	3118.003662
836.453125	3216.433594
834.662109	3143.072021
832.871094	3248.428955
831.080078	3223.941162
829.289063	3239.928955
827.496094	3226.614014
825.703125	3139.387695
823.910156	3180.481201
822.117188	3144.884521
820.324219	3032.651611
818.529297	3073.740234
816.734375	3029.834473
814.939453	3072.296631
813.144531	3011.702881
811.347656	2995.682861
809.550781	3024.204834
807.755859	2919.139648
805.957031	3015.827881
804.160156	3070.748291
802.361328	3049.170166
800.564453	3060.963623
798.765625	3074.141113
796.964844	2971.989502
795.166016	3007.406738
793.365234	2983.089844
791.564453	2993.495117
789.763672	3009.447754
787.962891	3097.558105
786.160156	2953.919189
784.359375	2864.446533
782.556641	2824.940674
780.751953	2821.502197
778.949219	2884.600586
777.144531	2865.904785
775.339844	2916.492920
773.535156	2924.116455
771.730469	2822.332520
769.925781	2910.276367
768.119141	2916.510986
766.312500	2888.145264
764.505859	2847.340820
762.697266	2933.811768
760.890625	2958.011230
759.082031	2899.245117
757.273438	2982.877197
755.464844	2993.228027
753.654297	3054.692627
751.845703	3106.458984
750.035156	3149.915039
748.224609	3236.148926
746.412109	3428.623779
744.601563	3684.485352
742.789063	4017.484863
740.976563	4867.565918
739.164063	6290.899414
737.349609	8342.224609
735.537109	10593.814453
733.722656	12585.274414
731.908203	13254.600586
730.091797	12604.110352
728.277344	10618.215820
726.460938	8276.695313
724.644531	6053.274902
722.828125	4818.906250
721.009766	4220.703125
719.193359	3747.943848
717.375000	3510.544434
715.556641	3355.741699
713.736328	3280.728271
711.917969	3120.556396
710.097656	3159.655762
708.277344	3021.562988
706.457031	3034.577637
704.636719	3047.585938
702.814453	3044.118164
700.992188	3003.604248
699.169922	2932.929443
697.347656	3018.636963
695.523438	2939.764648
693.699219	2962.371338
691.875000	3026.082031
690.050781	3088.392090
688.226563	3153.411865
686.400391	3185.531982
684.574219	3201.206055
682.748047	3125.157227
680.921875	3235.267822
679.095703	3168.824219
677.267578	3034.016602
675.439453	2982.695068
673.611328	2912.256104
671.781250	2953.938721
669.953125	2935.470703
668.123047	2930.674072
666.292969	2845.287842
664.460938	2912.892822
662.630859	2987.291992
660.798828	2966.106689
658.966797	2999.517578
657.134766	3011.082764
655.302734	3069.018799
653.468750	3039.651123
651.634766	3045.744385
649.800781	3227.666260
647.966797	3162.850586
646.130859	3196.157227
644.294922	3120.482666
642.458984	3190.550049
640.623047	3098.575439
638.787109	3085.587646
636.949219	3215.486084
635.111328	3115.407959
633.273438	3120.106201
631.435547	3141.119385
629.595703	3206.984863
627.757813	3214.375244
625.917969	3243.503174
624.076172	3166.654297
622.236328	3233.807861
620.394531	3146.134521
618.552734	3063.932861
616.710938	2947.840332
614.869141	2956.635254
613.025391	2942.364502
611.183594	2884.700928
609.339844	2855.538818
607.494141	2899.591797
605.650391	2763.374023
603.804688	2774.908936
601.958984	2745.799805
600.113281	2695.035889
598.267578	2671.375000
596.419922	2598.994385
594.572266	2614.613770
592.724609	2531.456543
590.876953	2589.017090
589.027344	2585.694092
587.179688	2516.123291
585.330078	2564.183594
583.480469	2573.030762
581.628906	2595.384277
579.779297	2583.958252
577.927734	2564.435303
576.076172	2598.924805
574.222656	2719.782959
572.371094	2725.880127
570.517578	2730.625244
568.664063	2839.225586
566.810547	2746.850342
564.955078	2792.031006
563.101563	2849.320313
561.246094	2802.823730
559.390625	2752.307617
557.533203	2750.302734
555.677734	2742.912354
553.820313	2765.142090
551.962891	2676.997314
550.105469	2681.739258
548.246094	2666.300049
546.386719	2668.352051
544.527344	2670.403076
542.667969	2672.452637
540.808594	2650.309814
538.947266	2694.016113
537.085938	2728.298096
535.224609	2648.407715
533.363281	2635.689941
531.500000	2598.815186
529.638672	2600.877441
527.775391	2633.797852
525.910156	2721.699951
524.046875	2845.768555
522.181641	3440.383789
520.316406	4383.227539
518.451172	4068.591064
516.585938	3204.789063
514.718750	2786.105957
512.851563	2711.785400
510.984375	2578.591553
509.117188	2592.697754
507.250000	2510.447266
505.380859	2446.966064
503.511719	2487.843994
501.642578	2485.911133
499.771484	2517.401367
497.902344	2472.690918
496.031250	2430.674316
494.160156	2381.998047
492.287109	2397.454834
490.416016	2428.927979
488.542969	2400.311279
486.669922	2431.768311
484.796875	2469.882080
482.921875	2421.265137
481.046875	2408.681641
479.171875	2430.772217
477.296875	2395.529785
475.421875	2352.307861
473.544922	2387.719971
471.667969	2411.125732
469.791016	2393.234619
467.914063	2375.352051
466.035156	2357.477783
464.156250	2332.957764
462.277344	2305.788330
460.398438	2331.839600
458.519531	2339.260254
456.638672	2253.607666
454.757813	2300.920166
452.876953	2304.355469
450.994141	2294.502930
449.113281	2317.862305
447.230469	2381.049316
445.347656	2291.526123
443.462891	2276.376221
441.580078	2287.773682
439.695313	2309.779297
437.810547	2384.829102
435.925781	2319.280518
434.039063	2347.891113
432.152344	2347.328369
430.267578	2291.111328
428.378906	2309.109131
426.492188	2272.794922
424.603516	2233.849609
422.714844	2357.755127
420.826172	2276.455322
418.937500	2279.879150
417.046875	2353.414551
415.158203	2327.721680
413.265625	2282.207275
411.375000	2347.757080
409.484375	2345.872803
407.591797	2316.241943
405.699219	2338.143555
403.806641	2308.528564
401.912109	2371.352051
400.019531	2306.102051
