#Wave		#Intensity
1585.210938	29035.132813
1584.209961	29027.640625
1583.208984	29528.542969
1582.208008	29315.207031
1581.206055	28909.757813
1580.204102	28886.300781
1579.202148	28827.919922
1578.200195	28607.417969
1577.198242	28953.148438
1576.195313	28819.982422
1575.192383	29068.298828
1574.189453	28768.164063
1573.186523	28742.269531
1572.182617	28900.751953
1571.178711	28526.109375
1570.174805	28251.236328
1569.170898	28504.335938
1568.166992	28570.623047
1567.162109	28552.263672
1566.158203	28426.908203
1565.153320	28649.902344
1564.147461	28221.125000
1563.142578	28384.384766
1562.136719	28420.773438
1561.130859	28710.695313
1560.125000	28833.984375
1559.119141	29064.064453
1558.113281	29507.691406
1557.106445	29841.851563
1556.099609	30193.253906
1555.092773	30894.568359
1554.084961	31042.066406
1553.078125	31365.699219
1552.070313	31875.283203
1551.062500	31833.955078
1550.054688	32474.673828
1549.045898	32448.113281
1548.038086	33014.066406
1547.029297	33436.023438
1546.020508	33201.121094
1545.011719	34195.175781
1544.001953	34619.101563
1542.992188	35166.675781
1541.982422	35454.042969
1540.972656	35632.363281
1539.962891	36270.957031
1538.952148	36038.273438
1537.942383	36711.152344
1536.931641	36238.542969
1535.919922	36312.644531
1534.909180	35949.097656
1533.897461	35872.441406
1532.886719	35469.589844
1531.874023	34733.332031
1530.862305	33898.562500
1529.850586	33444.500000
1528.837891	32738.746094
1527.825195	32588.773438
1526.812500	32038.992188
1525.799805	31479.566406
1524.786133	30999.322266
1523.772461	30166.525391
1522.758789	30246.599609
1521.745117	29680.603516
1520.731445	29945.638672
1519.716797	29160.572266
1518.702148	29408.351563
1517.687500	28680.386719
1516.672852	28945.402344
1515.657227	28806.421875
1514.642578	28797.994141
1513.626953	28700.947266
1512.610352	29174.933594
1511.594727	28703.824219
1510.579102	28631.453125
1509.562500	28878.869141
1508.545898	28432.699219
1507.529297	28790.689453
1506.511719	28885.509766
1505.494141	28764.017578
1504.477539	28868.628906
1503.458984	29017.416016
1502.441406	28959.826172
1501.423828	28772.113281
1500.405273	28893.816406
1499.386719	29044.923828
1498.368164	28886.753906
1497.348633	29197.277344
1496.330078	28968.000000
1495.310547	28979.166016
1494.291016	29213.460938
1493.271484	29214.761719
1492.250977	28975.861328
1491.231445	29222.257813
1490.210938	29524.902344
1489.190430	29450.197266
1488.168945	29255.521484
1487.148438	29271.494141
1486.126953	29466.160156
1485.105469	29560.398438
1484.083984	30051.001953
1483.061523	29685.144531
1482.040039	29767.044922
1481.017578	29949.171875
1479.995117	30189.900391
1478.971680	30530.748047
1477.949219	30695.490234
1476.925781	30806.408203
1475.902344	31105.382813
1474.878906	31882.939453
1473.855469	32281.679688
1472.831055	33017.164063
1471.806641	33400.851563
1470.782227	33884.437500
1469.757813	35055.859375
1468.733398	35224.222656
1467.708008	36575.351563
1466.682617	37857.644531
1465.657227	38754.226563
1464.631836	40391.378906
1463.605469	41723.250000
1462.579102	43242.164063
1461.552734	44005.339844
1460.526367	45250.390625
1459.500000	46490.050781
1458.472656	47507.671875
1457.445313	47736.324219
1456.417969	47570.683594
1455.390625	47045.058594
1454.362305	46784.769531
1453.334961	45965.277344
1452.306641	44973.503906
1451.277344	44042.906250
1450.249023	42704.414063
1449.219727	41594.867188
1448.191406	39924.625000
1447.162109	39331.007813
1446.131836	38128.144531
1445.102539	36702.429688
1444.072266	36255.480469
1443.041992	35376.753906
1442.011719	34384.359375
1440.981445	33981.824219
1439.950195	33443.640625
1438.918945	32803.843750
1437.887695	32605.511719
1436.856445	32332.128906
1435.825195	32163.054688
1434.792969	31557.962891
1433.760742	31270.429688
1432.728516	31171.904297
1431.696289	30981.412109
1430.663086	30645.757813
1429.629883	30494.175781
1428.596680	30158.757813
1427.563477	30152.486328
1426.530273	29839.042969
1425.496094	29235.550781
1424.461914	29352.769531
1423.427734	29051.769531
1422.393555	28700.144531
1421.358398	28520.208984
1420.323242	28429.726563
1419.288086	28254.748047
1418.252930	28446.869141
1417.217773	28245.402344
1416.181641	28174.353516
1415.145508	28221.576172
1414.109375	28121.607422
1413.073242	28709.134766
1412.036133	28396.880859
1411.000000	28817.734375
1409.962891	29168.503906
1408.924805	29381.750000
1407.887695	30011.767578
1406.849609	30470.472656
1405.812500	31299.912109
1404.773438	32365.000000
1403.735352	32796.437500
1402.697266	33817.437500
1401.658203	34359.093750
1400.619141	34770.593750
1399.580078	34938.953125
1398.540039	35431.929688
1397.500977	35864.582031
1396.460938	35506.105469
1395.420898	35380.925781
1394.380859	35224.554688
1393.339844	35109.089844
1392.298828	34895.183594
1391.257813	34494.042969
1390.216797	35043.898438
1389.175781	34734.109375
1388.133789	35271.679688
1387.091797	35427.492188
1386.049805	36075.046875
1385.007813	36460.882813
1383.964844	37359.746094
1382.922852	38411.675781
1381.879883	39103.601563
1380.835938	40173.898438
1379.792969	40704.625000
1378.749023	41843.601563
1377.706055	42488.718750
1376.661133	42915.652344
1375.617188	42796.558594
1374.573242	42897.718750
1373.528320	42723.628906
1372.483398	42688.378906
1371.438477	42495.265625
1370.392578	42498.339844
1369.347656	41609.535156
1368.301758	41543.460938
1367.255859	41063.925781
1366.208984	40797.261719
1365.163086	40177.125000
1364.116211	39743.550781
1363.069336	39243.289063
1362.022461	39356.843750
1360.974609	39078.867188
1359.927734	39132.738281
1358.879883	38964.679688
1357.832031	39238.019531
1356.783203	39179.718750
1355.735352	39128.589844
1354.686523	39575.753906
1353.637695	39522.175781
1352.588867	40745.949219
1351.539063	41330.675781
1350.490234	42610.722656
1349.440430	43416.296875
1348.390625	44681.078125
1347.339844	45876.289063
1346.290039	46973.410156
1345.239258	48319.929688
1344.188477	49670.636719
1343.137695	50806.699219
1342.085938	51804.355469
1341.034180	52884.800781
1339.982422	53532.164063
1338.930664	54668.824219
1337.878906	55306.027344
1336.826172	55957.210938
1335.773438	56482.238281
1334.720703	56432.386719
1333.667969	56335.070313
1332.614258	55466.371094
1331.561523	55419.125000
1330.507813	54373.031250
1329.453125	53510.019531
1328.399414	52350.917969
1327.344727	51787.449219
1326.290039	50588.890625
1325.235352	49770.050781
1324.180664	48937.328125
1323.125000	48728.035156
1322.070313	48708.316406
1321.014648	48252.867188
1319.958008	47797.605469
1318.902344	46852.535156
1317.845703	46527.917969
1316.789063	45895.835938
1315.732422	44663.144531
1314.675781	43899.269531
1313.618164	43428.925781
1312.560547	42164.425781
1311.502930	41238.453125
1310.445313	39937.128906
1309.386719	39127.781250
1308.329102	38297.515625
1307.270508	37011.792969
1306.210938	36106.757813
1305.152344	35714.363281
1304.092773	35211.203125
1303.033203	34054.625000
1301.973633	34141.812500
1300.914063	33603.914063
1299.853516	33417.609375
1298.792969	33205.445313
1297.732422	33094.722656
1296.671875	32540.994141
1295.611328	32282.017578
1294.549805	32105.595703
1293.488281	32047.005859
1292.426758	32110.882813
1291.364258	32393.669922
1290.302734	31944.335938
1289.240234	32036.423828
1288.177734	32142.587891
1287.114258	32011.130859
1286.051758	32034.941406
1284.988281	32044.630859
1283.924805	32279.982422
1282.861328	31991.134766
1281.796875	32501.310547
1280.732422	32668.281250
1279.667969	33044.214844
1278.603516	33466.953125
1277.539063	33692.300781
1276.473633	34074.812500
1275.408203	34872.535156
1274.342773	34916.773438
1273.277344	35695.210938
1272.210938	35537.558594
1271.145508	35424.519531
1270.079102	34969.269531
1269.011719	34914.988281
1267.945313	34530.328125
1266.877930	34307.476563
1265.810547	33653.742188
1264.743164	32831.675781
1263.674805	32215.984375
1262.607422	31818.246094
1261.539063	31231.109375
1260.470703	30868.839844
1259.401367	30307.880859
1258.333008	29959.988281
1257.263672	29612.242188
1256.194336	29496.082031
1255.125000	29230.382813
1254.054688	28562.861328
1252.985352	28428.300781
1251.915039	28064.884766
1250.843750	27839.406250
1249.773438	27578.998047
1248.702148	27587.146484
1247.630859	27359.572266
1246.559570	27293.091797
1245.488281	27128.660156
1244.416016	27013.273438
1243.343750	26709.054688
1242.271484	26570.488281
1241.199219	26564.839844
1240.125977	26775.914063
1239.053711	26760.898438
1237.980469	26419.775391
1236.906250	26511.968750
1235.833008	27030.212891
1234.758789	26665.964844
1233.684570	26690.544922
1232.610352	26505.691406
1231.536133	26679.179688
1230.460938	26759.556641
1229.385742	26693.396484
1228.310547	26703.984375
1227.235352	26770.351563
1226.159180	26892.460938
1225.083008	26914.611328
1224.006836	27108.644531
1222.930664	26759.144531
1221.853516	27171.388672
1220.777344	27135.414063
1219.700195	26818.617188
1218.622070	27012.455078
1217.544922	27435.882813
1216.466797	27622.542969
1215.388672	27667.664063
1214.310547	27972.433594
1213.232422	28246.937500
1212.153320	28470.335938
1211.074219	28364.623047
1209.995117	29055.828125
1208.916016	28908.343750
1207.835938	29068.882813
1206.755859	29271.019531
1205.675781	29385.117188
1204.595703	29348.751953
1203.514648	29485.914063
1202.434570	29211.294922
1201.353516	29295.234375
1200.271484	29027.705078
1199.190430	29155.562500
1198.108398	29128.523438
1197.026367	28620.896484
1195.944336	28667.898438
1194.862305	28282.990234
1193.779297	27992.916016
1192.696289	27624.472656
1191.613281	27133.855469
1190.530273	27282.648438
1189.446289	26697.720703
1188.362305	26447.496094
1187.278320	26363.417969
1186.194336	25951.976563
1185.109375	25741.255859
1184.024414	25675.812500
1182.939453	25271.689453
1181.854492	25261.658203
1180.768555	25205.568359
1179.683594	24679.759766
1178.597656	24999.062500
1177.510742	24678.367188
1176.424805	24656.958984
1175.337891	24143.214844
1174.250977	24457.751953
1173.164063	24440.996094
1172.077148	24380.562500
1170.989258	24508.646484
1169.901367	24023.052734
1168.813477	24169.535156
1167.724609	24426.218750
1166.636719	24310.720703
1165.547852	24450.152344
1164.458984	24173.994141
1163.369141	24487.828125
1162.280273	24335.693359
1161.190430	24846.658203
1160.100586	24696.802734
1159.010742	24712.121094
1157.919922	25231.839844
1156.829102	24951.332031
1155.738281	25062.833984
1154.647461	25178.871094
1153.555664	25542.257813
1152.464844	25387.882813
1151.373047	25370.957031
1150.280273	25324.277344
1149.188477	25444.699219
1148.095703	25304.197266
1147.002930	25319.326172
1145.910156	25583.765625
1144.817383	25411.304688
1143.723633	25302.931641
1142.629883	25393.472656
1141.536133	25088.605469
1140.441406	25003.214844
1139.347656	25148.580078
1138.252930	24784.578125
1137.158203	24957.322266
1136.062500	24556.988281
1134.967773	24656.667969
1133.872070	24181.263672
1132.776367	24353.982422
1131.679688	24517.500000
1130.583984	23980.857422
1129.487305	24308.537109
1128.390625	24180.185547
1127.292969	24557.810547
1126.196289	24411.228516
1125.098633	24351.269531
1124.000977	24309.556641
1122.903320	24017.390625
1121.804688	24260.320313
1120.706055	24006.980469
1119.607422	24311.242188
1118.508789	23871.447266
1117.409180	24200.621094
1116.310547	24240.851563
1115.210938	24108.275391
1114.110352	23743.908203
1113.010742	23597.859375
1111.910156	23538.207031
1110.809570	23876.099609
1109.708984	23614.287109
1108.607422	23908.869141
1107.506836	23622.189453
1106.405273	23505.847656
1105.303711	23584.695313
1104.201172	23366.324219
1103.098633	23270.521484
1101.996094	22986.546875
1100.893555	22870.460938
1099.791016	22802.021484
1098.687500	22957.955078
1097.583984	22889.521484
1096.480469	23081.605469
1095.376953	23239.634766
1094.272461	23225.519531
1093.167969	23335.906250
1092.063477	22907.615234
1090.958008	22762.339844
1089.853516	22836.556641
1088.748047	23385.689453
1087.642578	23152.214844
1086.536133	23508.876953
1085.430664	23451.765625
1084.324219	23650.025391
1083.217773	24013.117188
1082.110352	24208.904297
1081.003906	24474.609375
1079.896484	24771.802734
1078.789063	24901.830078
1077.680664	24937.015625
1076.573242	24922.544922
1075.464844	24998.308594
1074.356445	24947.744141
1073.247070	24802.496094
1072.138672	24835.400391
1071.029297	24802.925781
1069.919922	24524.855469
1068.809570	24449.656250
1067.700195	23788.888672
1066.589844	24177.751953
1065.479492	23870.787109
1064.368164	24056.884766
1063.257813	23714.068359
1062.146484	23528.890625
1061.035156	23498.996094
1059.922852	23291.453125
1058.811523	23092.992188
1057.699219	23002.515625
1056.586914	22957.021484
1055.473633	22832.906250
1054.361328	23043.556641
1053.248047	22930.701172
1052.134766	22543.953125
1051.021484	22662.480469
1049.907227	22433.068359
1048.792969	22255.363281
1047.678711	22275.158203
1046.564453	22485.593750
1045.449219	22346.109375
1044.333984	22556.433594
1043.218750	22847.355469
1042.103516	22450.166016
1040.987305	22720.814453
1039.871094	22644.142578
1038.754883	22820.566406
1037.638672	22564.783203
1036.521484	22765.765625
1035.404297	22939.802734
1034.287109	22941.470703
1033.169922	23142.234375
1032.051758	22982.820313
1030.933594	23158.884766
1029.815430	23240.976563
1028.697266	23209.039063
1027.578125	22980.472656
1026.458984	23058.074219
1025.339844	23334.429688
1024.220703	23385.117188
1023.100586	23458.107422
1021.980469	23457.402344
1020.860352	23713.333984
1019.740234	23502.841797
1018.619141	23765.337891
1017.498047	23635.208984
1016.376953	23886.408203
1015.255859	23551.220703
1014.133789	23782.265625
1013.011719	23681.205078
1011.889648	23593.552734
1010.767578	23746.476563
1009.644531	23614.310547
1008.521484	23609.095703
1007.398438	23483.691406
1006.274414	23598.666016
1005.151367	23453.292969
1004.027344	23459.232422
1002.902344	23380.662109
1001.778320	23397.726563
1000.653320	23308.087891
999.528320	23396.267578
998.403320	23455.525391
997.278320	23450.335938
996.152344	23278.585938
995.026367	23304.519531
993.900391	23758.865234
992.773438	23351.904297
991.646484	23774.970703
990.519531	23920.554688
989.392578	24141.478516
988.265625	24058.521484
987.137695	24383.505859
986.009766	24779.267578
984.881836	24605.367188
983.752930	24622.064453
982.624023	24671.978516
981.495117	24907.878906
980.366211	24703.097656
979.236328	24385.521484
978.106445	24280.527344
976.976563	24445.498047
975.846680	24218.873047
974.715820	24018.884766
973.585938	23914.056641
972.454102	23705.378906
971.323242	23472.482422
970.191406	23321.437500
969.060547	23497.394531
967.927734	22840.654297
966.795898	23197.695313
965.663086	23004.896484
964.530273	23085.855469
963.397461	23453.630859
962.264648	23616.074219
961.130859	23339.531250
959.997070	23621.000000
958.863281	23549.603516
957.729492	23469.419922
956.594727	23210.777344
955.459961	23582.343750
954.325195	23169.601563
953.189453	23208.482422
952.053711	23110.841797
950.917969	23319.205078
949.782227	23080.734375
948.646484	22679.554688
947.509766	22883.468750
946.373047	22849.775391
945.235352	22714.953125
944.098633	22632.947266
942.960938	22937.777344
941.823242	22814.005859
940.685547	22973.669922
939.546875	23098.121094
938.408203	23165.423828
937.269531	23436.855469
936.129883	23530.384766
934.991211	23751.142578
933.851563	23987.154297
932.711914	23731.753906
931.571289	24024.673828
930.431641	23830.761719
929.291016	24393.121094
928.149414	24398.623047
927.008789	24458.890625
925.867188	24560.748047
924.725586	23996.828125
923.583984	24162.230469
922.441406	23793.462891
921.299805	23442.365234
920.157227	23568.392578
919.013672	22987.816406
917.871094	23129.193359
916.727539	22960.025391
915.583984	22417.132813
914.439453	22261.310547
913.295898	22007.230469
912.151367	22159.582031
911.006836	21973.339844
909.861328	21835.216797
908.716797	21751.728516
907.571289	21810.142578
906.424805	21693.964844
905.279297	21819.990234
904.132813	21836.902344
902.986328	21633.566406
901.839844	21855.439453
900.692383	21503.972656
899.545898	21475.173828
898.398438	21845.072266
897.250000	21796.601563
896.102539	22031.244141
894.954102	21993.634766
893.805664	21886.386719
892.656250	21674.728516
891.507813	21841.734375
890.358398	21856.398438
889.208984	21821.035156
888.058594	21557.394531
886.908203	21728.615234
885.758789	21712.857422
884.607422	21692.761719
883.457031	21620.537109
882.305664	21615.667969
881.154297	21265.566406
880.002930	21618.957031
878.850586	21451.314453
877.698242	21494.216797
876.545898	21495.880859
875.393555	21120.164063
874.240234	21423.308594
873.086914	21331.763672
871.933594	21075.537109
870.780273	21031.779297
869.625977	21089.861328
868.471680	20892.337891
867.317383	21021.878906
866.162109	20913.216797
865.007813	21382.509766
863.852539	21044.433594
862.696289	20968.287109
861.541016	21322.605469
860.384766	21404.289063
859.228516	21081.640625
858.072266	20890.986328
856.915039	21188.808594
855.757813	21184.019531
854.600586	21012.908203
853.442383	21113.974609
852.285156	20975.339844
851.126953	21201.562500
849.968750	21082.388672
848.809570	21297.695313
847.650391	21178.548828
846.491211	21216.888672
845.332031	20625.617188
844.171875	21149.082031
843.012695	21258.517578
841.851563	21154.587891
840.691406	21050.705078
839.530273	21229.001953
838.369141	21250.031250
837.208008	21299.033203
836.046875	21076.832031
834.884766	21248.498047
833.722656	21476.017578
832.560547	21305.539063
831.397461	21025.470703
830.234375	21115.294922
829.071289	21273.851563
827.908203	21030.507813
826.744141	21236.271484
825.580078	21235.748047
824.416016	21222.339844
823.251953	21204.640625
822.086914	21300.707031
820.921875	21338.789063
819.756836	21209.509766
818.590820	21196.111328
817.425781	21272.785156
816.259766	21158.611328
815.092773	21190.242188
813.926758	21061.134766
812.759766	20985.644531
811.592773	21182.222656
810.424805	20973.962891
809.257813	21022.718750
808.089844	20814.587891
806.920898	21126.580078
805.752930	20770.886719
804.583984	20624.980469
803.415039	21212.677734
802.246094	21047.492188
801.076172	21036.287109
799.906250	20817.785156
798.736328	20870.736328
797.566406	21021.921875
796.395508	20985.099609
795.224609	21373.193359
794.053711	21432.365234
792.881836	21771.089844
791.710938	22047.781250
790.538086	22232.613281
789.366211	22538.927734
788.194336	22442.103516
787.021484	22842.023438
785.848633	22875.177734
784.674805	22972.240234
783.500977	22779.531250
782.327148	22209.929688
781.153320	22213.378906
779.979492	22140.185547
778.804688	22060.640625
777.629883	21759.828125
776.454102	21459.150391
775.279297	21771.162109
774.103516	21549.294922
772.927734	21433.824219
771.750977	21658.478516
770.575195	21572.781250
769.398438	21846.162109
768.220703	21902.767578
767.043945	22010.308594
765.866211	22217.582031
764.688477	22424.757813
763.510742	22593.640625
762.332031	22531.191406
761.153320	23164.490234
759.974609	23557.867188
758.794922	24415.369141
757.616211	25081.710938
756.436523	26281.771484
755.255859	27428.314453
754.076172	29105.996094
752.895508	31555.867188
751.714844	34447.113281
750.533203	37246.015625
749.352539	40970.546875
748.170898	44640.476563
746.988281	47663.562500
745.806641	50308.824219
744.624023	53041.671875
743.441406	54800.906250
742.258789	57635.019531
741.075195	60459.378906
739.891602	64530.847656
738.708008	68249.875000
737.523438	72402.140625
736.339844	75148.734375
735.155273	75990.445313
733.969727	74793.554688
732.785156	70947.718750
731.599609	66038.601563
730.414063	60001.578125
729.227539	53282.214844
728.041992	47052.765625
726.855469	41338.187500
725.667969	36582.609375
724.481445	32585.294922
723.293945	29714.201172
722.106445	27598.052734
720.918945	26791.957031
719.730469	25386.544922
718.541992	24589.736328
717.353516	23551.425781
716.164063	23104.449219
714.975586	22729.152344
713.786133	22570.501953
712.595703	22109.343750
711.406250	21826.962891
710.215820	21664.423828
709.025391	21863.125000
707.833984	21744.734375
706.642578	21649.486328
705.451172	21589.949219
704.259766	21442.330078
703.068359	21747.810547
701.875977	21942.015625
700.683594	21985.185547
699.490234	21954.976563
698.297852	22911.738281
697.104492	23490.964844
695.910156	24260.521484
694.716797	25094.636719
693.522461	25373.580078
692.328125	25702.626953
691.132813	25839.001953
689.938477	25747.277344
688.743164	25873.119141
687.547852	25881.798828
686.351563	25392.900391
685.155273	24946.027344
683.958984	24553.689453
682.762695	24232.564453
681.565430	23627.519531
680.368164	23100.017578
679.170898	22647.916016
677.973633	22509.109375
676.775391	22458.011719
675.577148	22308.880859
674.378906	22170.244141
673.179688	22240.205078
671.980469	22314.300781
670.781250	22092.378906
669.581055	22031.017578
668.381836	21844.679688
667.181641	21860.468750
665.980469	21911.652344
664.780273	21610.955078
663.579102	21645.517578
662.377930	21490.689453
661.175781	21591.837891
659.973633	21842.701172
658.771484	22380.429688
657.569336	22487.535156
656.367188	22773.349609
655.164063	23027.859375
653.960938	23492.091797
652.756836	23862.636719
651.552734	24363.841797
650.348633	24659.265625
649.144531	25081.171875
647.939453	25693.806641
646.735352	25671.273438
645.529297	25715.125000
644.324219	25931.082031
643.118164	26252.679688
641.912109	26184.425781
640.706055	26240.546875
639.499023	25896.761719
638.292969	25650.490234
637.084961	25246.937500
635.877930	25025.771484
634.669922	24589.427734
633.461914	24438.876953
632.253906	23891.138672
631.044922	23804.941406
629.836914	23383.751953
628.626953	23479.656250
627.417969	23143.486328
626.208008	23014.132813
624.998047	22595.576172
623.788086	22117.306641
622.577148	22203.058594
621.366211	21927.441406
620.155273	21689.107422
618.944336	21296.097656
617.732422	20987.865234
616.520508	20873.677734
615.308594	20487.314453
614.095703	20284.632813
612.882813	20486.076172
611.669922	20190.744141
610.457031	20163.404297
609.243164	19870.341797
608.029297	19944.001953
606.815430	19980.564453
605.600586	19858.601563
604.385742	19975.425781
603.170898	20020.181641
601.955078	20101.943359
600.740234	20064.380859
599.524414	20331.144531
598.307617	19853.630859
597.091797	19974.398438
595.875000	19930.730469
594.658203	19932.275391
593.440430	20149.462891
592.222656	20385.029297
591.004883	20359.777344
589.787109	20147.773438
588.568359	20052.822266
587.349609	20364.085938
586.130859	20129.666016
584.912109	19967.115234
583.692383	20083.435547
582.472656	20132.066406
581.251953	20184.771484
580.032227	20276.373047
578.811523	20709.955078
577.589844	20766.580078
576.369141	21091.349609
575.147461	21280.890625
573.925781	21591.062500
572.703125	21827.447266
571.481445	22337.777344
570.258789	22565.697266
569.035156	23042.908203
567.812500	23107.052734
566.588867	23555.308594
565.365234	23976.798828
564.140625	23834.398438
562.916992	23922.794922
561.692383	24135.677734
560.466797	23989.253906
559.242188	23624.564453
558.016602	23347.763672
556.791016	22924.244141
555.564453	22765.996094
554.337891	22507.931641
553.111328	21689.503906
551.884766	21537.761719
550.657227	21117.183594
549.429688	20717.166016
548.202148	20413.035156
546.974609	20455.119141
545.746094	20480.902344
544.517578	20223.833984
543.288086	20505.978516
542.058594	20074.111328
540.829102	20075.550781
539.599609	20333.136719
538.370117	20108.914063
537.139648	19829.931641
535.909180	19924.871094
534.677734	19952.742188
533.446289	19743.025391
532.214844	19980.021484
530.983398	19845.488281
529.750977	19962.628906
528.519531	19625.292969
527.286133	19369.240234
526.053711	19646.597656
524.820313	19666.363281
523.586914	19584.779297
522.353516	19645.074219
521.119141	19561.505859
519.884766	19516.455078
518.650391	19667.841797
517.415039	19566.101563
516.179688	19517.031250
514.944336	19447.748047
513.708984	19368.380859
