#Wave		#Intensity
1585.210938	30101.628906
1584.209961	29881.835938
1583.208984	29673.376953
1582.208008	30036.726563
1581.206055	29725.980469
1580.204102	30019.291016
1579.202148	29868.359375
1578.200195	29617.707031
1577.198242	30020.591797
1576.195313	29433.384766
1575.192383	29756.363281
1574.189453	29608.128906
1573.186523	29223.218750
1572.182617	29351.703125
1571.178711	29173.750000
1570.174805	28901.234375
1569.170898	28945.046875
1568.166992	28732.433594
1567.162109	28659.283203
1566.158203	28996.740234
1565.153320	28891.222656
1564.147461	28775.798828
1563.142578	28553.486328
1562.136719	28945.380859
1561.130859	29399.255859
1560.125000	29112.333984
1559.119141	29322.478516
1558.113281	29641.839844
1557.106445	29889.041016
1556.099609	30061.644531
1555.092773	30179.552734
1554.084961	30669.740234
1553.078125	30906.591797
1552.070313	31721.453125
1551.062500	31883.568359
1550.054688	32167.140625
1549.045898	32854.769531
1548.038086	33859.437500
1547.029297	34402.671875
1546.020508	35401.640625
1545.011719	36343.214844
1544.001953	37267.058594
1542.992188	38299.484375
1541.982422	38804.089844
1540.972656	39679.808594
1539.962891	40139.367188
1538.952148	40333.960938
1537.942383	40978.738281
1536.931641	41220.074219
1535.919922	40993.921875
1534.909180	40016.242188
1533.897461	40193.347656
1532.886719	39211.292969
1531.874023	38582.980469
1530.862305	37470.734375
1529.850586	36929.484375
1528.837891	36193.375000
1527.825195	35622.984375
1526.812500	34218.531250
1525.799805	33461.226563
1524.786133	32963.304688
1523.772461	32172.035156
1522.758789	31953.273438
1521.745117	31303.087891
1520.731445	31318.792969
1519.716797	30713.371094
1518.702148	30534.513672
1517.687500	30464.132813
1516.672852	30689.369141
1515.657227	30293.902344
1514.642578	30218.687500
1513.626953	30104.115234
1512.610352	30427.679688
1511.594727	30153.164063
1510.579102	30370.792969
1509.562500	30059.505859
1508.545898	30567.242188
1507.529297	30219.160156
1506.511719	29964.628906
1505.494141	30491.726563
1504.477539	30197.927734
1503.458984	30542.966797
1502.441406	30470.326172
1501.423828	30270.021484
1500.405273	30032.972656
1499.386719	30102.843750
1498.368164	29853.654297
1497.348633	30252.304688
1496.330078	30160.179688
1495.310547	29776.240234
1494.291016	29939.259766
1493.271484	29915.896484
1492.250977	30054.306641
1491.231445	29859.388672
1490.210938	30139.851563
1489.190430	30050.322266
1488.168945	30244.910156
1487.148438	30363.513672
1486.126953	30702.382813
1485.105469	30426.798828
1484.083984	30427.832031
1483.061523	30465.560547
1482.040039	30772.324219
1481.017578	31162.105469
1479.995117	31449.035156
1478.971680	31393.625000
1477.949219	31978.542969
1476.925781	31883.949219
1475.902344	32676.164063
1474.878906	32891.644531
1473.855469	33417.152344
1472.831055	33788.636719
1471.806641	34631.050781
1470.782227	35219.316406
1469.757813	36034.242188
1468.733398	36700.027344
1467.708008	37375.292969
1466.682617	38413.585938
1465.657227	39453.882813
1464.631836	40637.550781
1463.605469	41728.125000
1462.579102	42740.281250
1461.552734	44407.250000
1460.526367	45145.671875
1459.500000	46312.308594
1458.472656	47468.726563
1457.445313	47999.171875
1456.417969	48612.128906
1455.390625	48864.777344
1454.362305	48788.960938
1453.334961	48637.789063
1452.306641	48255.707031
1451.277344	47322.000000
1450.249023	45951.230469
1449.219727	45305.093750
1448.191406	43330.425781
1447.162109	42502.941406
1446.131836	41289.707031
1445.102539	39348.656250
1444.072266	38721.539063
1443.041992	37548.667969
1442.011719	36548.542969
1440.981445	35944.226563
1439.950195	35037.003906
1438.918945	34607.824219
1437.887695	34043.062500
1436.856445	33590.027344
1435.825195	33251.066406
1434.792969	33125.445313
1433.760742	32617.164063
1432.728516	32377.902344
1431.696289	32099.998047
1430.663086	31776.214844
1429.629883	31333.974609
1428.596680	31276.646484
1427.563477	30938.714844
1426.530273	30315.519531
1425.496094	30212.488281
1424.461914	30416.539063
1423.427734	29938.865234
1422.393555	29485.554688
1421.358398	29481.835938
1420.323242	29495.025391
1419.288086	29298.089844
1418.252930	28840.455078
1417.217773	29145.875000
1416.181641	29050.501953
1415.145508	29133.740234
1414.109375	28876.761719
1413.073242	28950.347656
1412.036133	29045.607422
1411.000000	29164.937500
1409.962891	29440.904297
1408.924805	29726.396484
1407.887695	30100.921875
1406.849609	30386.154297
1405.812500	31143.353516
1404.773438	31502.896484
1403.735352	32247.503906
1402.697266	32635.548828
1401.658203	33259.277344
1400.619141	33411.144531
1399.580078	33950.253906
1398.540039	34325.585938
1397.500977	34722.398438
1396.460938	34116.539063
1395.420898	34407.468750
1394.380859	34508.429688
1393.339844	34212.921875
1392.298828	34582.914063
1391.257813	34025.734375
1390.216797	34042.644531
1389.175781	34001.929688
1388.133789	33649.222656
1387.091797	34134.113281
1386.049805	34052.617188
1385.007813	34261.378906
1383.964844	34484.441406
1382.922852	34877.636719
1381.879883	35304.226563
1380.835938	35761.789063
1379.792969	36089.769531
1378.749023	36563.742188
1377.706055	37061.468750
1376.661133	37113.585938
1375.617188	37268.628906
1374.573242	37619.878906
1373.528320	38107.382813
1372.483398	38046.777344
1371.438477	37845.066406
1370.392578	37818.019531
1369.347656	38022.917969
1368.301758	37979.109375
1367.255859	38329.675781
1366.208984	38228.464844
1365.163086	38230.023438
1364.116211	38489.546875
1363.069336	38639.105469
1362.022461	38762.335938
1360.974609	38868.804688
1359.927734	39283.093750
1358.879883	39014.785156
1357.832031	39328.671875
1356.783203	39733.054688
1355.735352	39448.125000
1354.686523	39978.664063
1353.637695	40640.078125
1352.588867	41487.089844
1351.539063	41285.406250
1350.490234	42927.542969
1349.440430	43754.480469
1348.390625	44526.308594
1347.339844	45231.148438
1346.290039	46099.917969
1345.239258	47065.886719
1344.188477	48067.128906
1343.137695	49417.601563
1342.085938	49985.113281
1341.034180	50640.355469
1339.982422	51402.285156
1338.930664	51892.960938
1337.878906	52499.855469
1336.826172	52762.031250
1335.773438	53461.113281
1334.720703	53186.308594
1333.667969	53113.414063
1332.614258	53066.660156
1331.561523	52106.273438
1330.507813	51822.476563
1329.453125	51593.359375
1328.399414	50688.421875
1327.344727	50082.621094
1326.290039	49462.847656
1325.235352	48518.628906
1324.180664	48565.300781
1323.125000	47986.500000
1322.070313	47931.410156
1321.014648	47748.457031
1319.958008	47371.433594
1318.902344	47359.101563
1317.845703	46653.347656
1316.789063	46288.613281
1315.732422	45954.781250
1314.675781	44684.492188
1313.618164	44036.636719
1312.560547	43230.652344
1311.502930	42425.003906
1310.445313	40891.839844
1309.386719	39817.675781
1308.329102	38902.222656
1307.270508	37453.421875
1306.210938	36867.046875
1305.152344	36198.296875
1304.092773	35104.996094
1303.033203	34309.468750
1301.973633	33969.593750
1300.914063	33674.675781
1299.853516	33587.398438
1298.792969	32920.164063
1297.732422	32981.578125
1296.671875	32661.183594
1295.611328	32402.181641
1294.549805	32230.447266
1293.488281	31941.023438
1292.426758	32388.736328
1291.364258	32040.541016
1290.302734	32076.142578
1289.240234	31754.041016
1288.177734	31817.914063
1287.114258	32124.037109
1286.051758	31583.414063
1284.988281	31684.896484
1283.924805	31389.062500
1282.861328	31746.710938
1281.796875	31486.230469
1280.732422	31369.162109
1279.667969	31639.677734
1278.603516	31583.673828
1277.539063	31633.339844
1276.473633	31661.855469
1275.408203	31734.947266
1274.342773	31930.007813
1273.277344	31869.298828
1272.210938	31857.863281
1271.145508	32465.443359
1270.079102	31968.619141
1269.011719	31884.505859
1267.945313	31978.513672
1266.877930	31922.541016
1265.810547	31592.544922
1264.743164	31126.863281
1263.674805	30947.011719
1262.607422	30708.714844
1261.539063	30477.537109
1260.470703	30216.039063
1259.401367	29968.683594
1258.333008	29487.552734
1257.263672	29207.714844
1256.194336	28577.326172
1255.125000	28692.800781
1254.054688	28329.179688
1252.985352	28204.015625
1251.915039	27740.207031
1250.843750	27423.718750
1249.773438	27182.078125
1248.702148	27304.691406
1247.630859	26934.814453
1246.559570	26562.755859
1245.488281	26398.478516
1244.416016	26257.591797
1243.343750	26151.740234
1242.271484	26017.957031
1241.199219	25865.580078
1240.125977	25776.185547
1239.053711	25819.630859
1237.980469	25925.949219
1236.906250	25624.664063
1235.833008	25747.273438
1234.758789	25588.152344
1233.684570	25536.158203
1232.610352	25381.798828
1231.536133	25685.806641
1230.460938	25589.625000
1229.385742	25677.191406
1228.310547	25748.443359
1227.235352	25756.904297
1226.159180	25742.119141
1225.083008	25476.408203
1224.006836	25819.416016
1222.930664	25802.298828
1221.853516	25945.402344
1220.777344	26086.119141
1219.700195	26468.154297
1218.622070	26852.343750
1217.544922	26672.615234
1216.466797	27235.193359
1215.388672	27169.085938
1214.310547	27587.566406
1213.232422	28073.087891
1212.153320	28182.966797
1211.074219	28174.628906
1209.995117	28717.619141
1208.916016	29063.515625
1207.835938	28848.908203
1206.755859	28479.285156
1205.675781	28919.898438
1204.595703	28594.380859
1203.514648	28507.291016
1202.434570	29146.529297
1201.353516	28404.906250
1200.271484	28403.453125
1199.190430	28309.535156
1198.108398	28280.365234
1197.026367	28047.876953
1195.944336	27887.097656
1194.862305	27349.923828
1193.779297	27076.212891
1192.696289	26592.537109
1191.613281	26727.632813
1190.530273	26198.082031
1189.446289	25871.779297
1188.362305	25993.095703
1187.278320	25155.017578
1186.194336	25020.509766
1185.109375	24821.513672
1184.024414	24945.248047
1182.939453	24628.837891
1181.854492	24418.529297
1180.768555	24457.046875
1179.683594	24398.835938
1178.597656	24214.029297
1177.510742	23971.759766
1176.424805	23849.250000
1175.337891	23614.060547
1174.250977	23760.798828
1173.164063	23799.386719
1172.077148	23702.302734
1170.989258	23956.960938
1169.901367	23545.027344
1168.813477	23714.589844
1167.724609	23851.916016
1166.636719	23757.212891
1165.547852	23772.767578
1164.458984	23769.947266
1163.369141	24021.896484
1162.280273	24152.115234
1161.190430	24348.808594
1160.100586	24366.501953
1159.010742	24907.048828
1157.919922	25101.152344
1156.829102	24903.193359
1155.738281	25060.542969
1154.647461	25004.732422
1153.555664	24889.384766
1152.464844	25456.589844
1151.373047	25100.761719
1150.280273	25003.775391
1149.188477	24808.410156
1148.095703	24926.625000
1147.002930	24772.537109
1145.910156	24119.876953
1144.817383	24231.296875
1143.723633	24271.792969
1142.629883	24346.554688
1141.536133	24037.343750
1140.441406	24036.720703
1139.347656	23666.027344
1138.252930	23836.771484
1137.158203	23854.451172
1136.062500	23472.617188
1134.967773	23367.117188
1133.872070	23430.519531
1132.776367	23329.632813
1131.679688	23621.103516
1130.583984	23387.949219
1129.487305	23679.277344
1128.390625	23514.591797
1127.292969	23712.326172
1126.196289	23463.396484
1125.098633	23590.435547
1124.000977	23471.453125
1122.903320	23382.119141
1121.804688	23292.822266
1120.706055	23422.056641
1119.607422	23362.367188
1118.508789	23184.402344
1117.409180	23213.490234
1116.310547	22983.330078
1115.210938	22971.521484
1114.110352	23041.546875
1113.010742	22938.828125
1111.910156	23004.281250
1110.809570	23124.220703
1109.708984	23101.031250
1108.607422	22857.605469
1107.506836	22843.560547
1106.405273	22650.224609
1105.303711	22981.123047
1104.201172	22538.292969
1103.098633	22458.546875
1101.996094	22145.271484
1100.893555	22670.957031
1099.791016	22418.964844
1098.687500	22459.410156
1097.583984	22311.789063
1096.480469	22771.283203
1095.376953	22202.433594
1094.272461	22874.578125
1093.167969	22767.732422
1092.063477	22796.720703
1090.958008	23092.689453
1089.853516	23146.472656
1088.748047	23288.437500
1087.642578	23785.343750
1086.536133	24218.732422
1085.430664	24123.042969
1084.324219	24770.835938
1083.217773	24900.986328
1082.110352	25236.619141
1081.003906	25703.082031
1079.896484	25972.916016
1078.789063	26260.687500
1077.680664	26442.263672
1076.573242	26754.621094
1075.464844	26703.662109
1074.356445	26866.974609
1073.247070	26750.621094
1072.138672	26598.246094
1071.029297	26261.126953
1069.919922	25980.484375
1068.809570	25941.011719
1067.700195	25586.230469
1066.589844	25146.033203
1065.479492	24834.353516
1064.368164	24671.361328
1063.257813	24350.914063
1062.146484	24163.347656
1061.035156	23741.925781
1059.922852	23403.896484
1058.811523	23616.863281
1057.699219	23155.371094
1056.586914	22925.558594
1055.473633	22794.708984
1054.361328	22623.480469
1053.248047	22535.421875
1052.134766	22252.050781
1051.021484	22164.109375
1049.907227	22186.179688
1048.792969	22156.630859
1047.678711	22147.281250
1046.564453	22187.281250
1045.449219	22103.923828
1044.333984	22108.039063
1043.218750	22208.535156
1042.103516	22241.753906
1040.987305	22153.970703
1039.871094	22126.703125
1038.754883	22141.996094
1037.638672	22334.164063
1036.521484	22389.695313
1035.404297	22183.349609
1034.287109	22120.294922
1033.169922	22448.750000
1032.051758	22439.337891
1030.933594	22233.156250
1029.815430	22143.310547
1028.697266	22674.855469
1027.578125	22345.849609
1026.458984	22233.693359
1025.339844	22293.570313
1024.220703	22293.126953
1023.100586	22451.197266
1021.980469	22316.787109
1020.860352	22421.218750
1019.740234	22436.355469
1018.619141	22424.716797
1017.498047	22618.257813
1016.376953	22205.240234
1015.255859	22180.279297
1014.133789	22273.447266
1013.011719	22168.263672
1011.889648	22190.103516
1010.767578	22378.972656
1009.644531	22333.949219
1008.521484	22137.562500
1007.398438	22444.275391
1006.274414	22296.902344
1005.151367	22421.009766
1004.027344	22358.224609
1002.902344	22399.982422
1001.778320	22766.316406
1000.653320	22850.193359
999.528320	22589.578125
998.403320	22217.984375
997.278320	22524.050781
996.152344	22550.158203
995.026367	22796.064453
993.900391	22846.513672
992.773438	22912.474609
991.646484	23158.130859
990.519531	23166.312500
989.392578	23811.015625
988.265625	23697.087891
987.137695	23997.767578
986.009766	23850.599609
984.881836	24312.867188
983.752930	24433.755859
982.624023	24397.328125
981.495117	23937.958984
980.366211	24109.763672
979.236328	23872.001953
978.106445	23751.630859
976.976563	23854.769531
975.846680	23584.037109
974.715820	23284.673828
973.585938	23016.394531
972.454102	22969.283203
971.323242	22776.330078
970.191406	22879.535156
969.060547	22461.363281
967.927734	22421.033203
966.795898	22484.498047
965.663086	22380.158203
964.530273	22598.093750
963.397461	22641.613281
962.264648	22579.216797
961.130859	22871.947266
959.997070	22884.498047
958.863281	22824.289063
957.729492	22691.367188
956.594727	22699.537109
955.459961	22469.761719
954.325195	22825.990234
953.189453	22395.888672
952.053711	22234.580078
950.917969	22476.156250
949.782227	22284.087891
948.646484	22210.914063
947.509766	22219.158203
946.373047	22088.847656
945.235352	21734.324219
944.098633	21988.867188
942.960938	21832.316406
941.823242	21998.828125
940.685547	22450.843750
939.546875	22399.708984
938.408203	22315.658203
937.269531	22334.822266
936.129883	22619.546875
934.991211	22621.076172
933.851563	22754.230469
932.711914	23216.322266
931.571289	23197.976563
930.431641	23085.365234
929.291016	23367.333984
928.149414	23160.503906
927.008789	23512.433594
925.867188	23419.558594
924.725586	23420.886719
923.583984	23314.933594
922.441406	22985.755859
921.299805	23111.914063
920.157227	22767.609375
919.013672	22325.021484
917.871094	22245.664063
916.727539	22148.849609
915.583984	21984.310547
914.439453	21933.488281
913.295898	21718.812500
912.151367	21705.205078
911.006836	21619.529297
909.861328	21514.238281
908.716797	21548.707031
907.571289	21378.000000
906.424805	21207.367188
905.279297	21174.246094
904.132813	21189.123047
902.986328	21295.576172
901.839844	21092.406250
900.692383	21266.396484
899.545898	21276.873047
898.398438	21306.951172
897.250000	21269.492188
896.102539	21576.115234
894.954102	21440.636719
893.805664	21300.863281
892.656250	21491.929688
891.507813	21404.419922
890.358398	21316.949219
889.208984	21581.818359
888.058594	21159.511719
886.908203	21389.513672
885.758789	21245.611328
884.607422	21238.656250
883.457031	21099.193359
882.305664	20905.498047
881.154297	21232.996094
880.002930	21126.187500
878.850586	21047.636719
877.698242	20999.498047
876.545898	20927.515625
875.393555	21013.890625
874.240234	20965.787109
873.086914	20813.644531
871.933594	20707.083984
870.780273	20778.253906
869.625977	20914.382813
868.471680	20775.378906
867.317383	20716.554688
866.162109	20794.146484
865.007813	20826.248047
863.852539	20741.480469
862.696289	20611.316406
861.541016	20556.912109
860.384766	20504.695313
859.228516	20573.570313
858.072266	20475.976563
856.915039	20570.757813
855.757813	20447.279297
854.600586	20466.416016
853.442383	20336.535156
852.285156	20366.482422
851.126953	20547.513672
849.968750	20370.218750
848.809570	20592.158203
847.650391	20645.742188
846.491211	20625.972656
845.332031	20459.593750
844.171875	20597.236328
843.012695	20749.898438
841.851563	20678.406250
840.691406	20576.785156
839.530273	20548.433594
838.369141	20524.398438
837.208008	20552.039063
836.046875	20592.578125
834.884766	20749.292969
833.722656	20548.824219
832.560547	20580.728516
831.397461	20533.056641
830.234375	20616.541016
829.071289	20661.298828
827.908203	20815.625000
826.744141	20755.044922
825.580078	20541.994141
824.416016	20719.857422
823.251953	20667.923828
822.086914	20440.007813
820.921875	20658.539063
819.756836	20613.085938
818.590820	20694.201172
817.425781	20978.998047
816.259766	20725.535156
815.092773	20660.808594
813.926758	20626.111328
812.759766	20638.562500
811.592773	20781.669922
810.424805	20539.236328
809.257813	20699.425781
808.089844	20619.798828
806.920898	20630.087891
805.752930	20648.931641
804.583984	20552.251953
803.415039	20553.992188
802.246094	20628.423828
801.076172	20561.736328
799.906250	20663.912109
798.736328	20725.443359
797.566406	20596.828125
796.395508	20745.904297
795.224609	20751.855469
794.053711	20924.306641
792.881836	21367.724609
791.710938	21490.878906
790.538086	21567.042969
789.366211	22278.732422
788.194336	22489.011719
787.021484	22590.474609
785.848633	22685.494141
784.674805	22663.273438
783.500977	22747.578125
782.327148	22761.556641
781.153320	22319.845703
779.979492	22131.669922
778.804688	21992.531250
777.629883	21985.384766
776.454102	21916.542969
775.279297	21720.117188
774.103516	21534.410156
772.927734	21788.857422
771.750977	21868.900391
770.575195	21895.779297
769.398438	21943.888672
768.220703	22316.947266
767.043945	22479.605469
765.866211	22875.722656
764.688477	23148.546875
763.510742	23499.763672
762.332031	23971.746094
761.153320	24534.716797
759.974609	25269.199219
758.794922	26435.849609
757.616211	27642.236328
756.436523	29282.496094
755.255859	31703.792969
754.076172	34873.816406
752.895508	38713.699219
751.714844	42971.027344
750.533203	47628.585938
749.352539	53151.664063
748.170898	58297.722656
746.988281	61986.109375
745.806641	64938.964844
744.624023	66475.992188
743.441406	66097.187500
742.258789	65278.972656
741.075195	63484.988281
739.891602	62648.722656
738.708008	61120.140625
737.523438	60514.937500
736.339844	60091.542969
735.155273	58876.925781
733.969727	57394.898438
732.785156	55027.570313
731.599609	52336.539063
730.414063	48687.371094
729.227539	44312.605469
728.041992	40260.191406
726.855469	36717.429688
725.667969	33330.074219
724.481445	31012.050781
723.293945	29170.955078
722.106445	27219.132813
720.918945	26065.859375
719.730469	25123.527344
718.541992	24507.693359
717.353516	23969.958984
716.164063	23211.687500
714.975586	23189.537109
713.786133	22711.318359
712.595703	22428.734375
711.406250	22209.300781
710.215820	22170.591797
709.025391	22062.605469
707.833984	21948.369141
706.642578	21655.781250
705.451172	21900.505859
704.259766	21884.980469
703.068359	22165.191406
701.875977	22256.550781
700.683594	22542.833984
699.490234	23216.732422
698.297852	24062.146484
697.104492	24900.884766
695.910156	25795.785156
694.716797	26667.238281
693.522461	27651.339844
692.328125	28007.072266
691.132813	28111.529297
689.938477	27776.599609
688.743164	27558.951172
687.547852	26768.433594
686.351563	26055.632813
685.155273	25510.369141
683.958984	25002.970703
682.762695	24088.410156
681.565430	24224.892578
680.368164	23548.988281
679.170898	23589.490234
677.973633	23640.410156
676.775391	23415.847656
675.577148	23364.550781
674.378906	23304.933594
673.179688	23447.619141
671.980469	23094.039063
670.781250	23009.507813
669.581055	22506.148438
668.381836	22513.457031
667.181641	22149.998047
665.980469	22182.373047
664.780273	21862.875000
663.579102	21680.902344
662.377930	22035.916016
661.175781	21779.085938
659.973633	21884.302734
658.771484	21748.236328
657.569336	21874.199219
656.367188	21960.609375
655.164063	22073.992188
653.960938	22376.388672
652.756836	22637.101563
651.552734	23202.966797
650.348633	23581.707031
649.144531	23787.986328
647.939453	24050.199219
646.735352	24501.095703
645.529297	24532.773438
644.324219	24817.439453
643.118164	24863.539063
641.912109	24600.757813
640.706055	24234.476563
639.499023	23793.775391
638.292969	23825.562500
637.084961	23447.283203
635.877930	22940.808594
634.669922	22645.707031
633.461914	22574.246094
632.253906	22335.224609
631.044922	22148.027344
629.836914	22004.343750
628.626953	21988.916016
627.417969	22087.187500
626.208008	21765.880859
624.998047	21684.398438
623.788086	21621.542969
622.577148	21759.039063
621.366211	21561.984375
620.155273	21298.962891
618.944336	21341.501953
617.732422	21194.195313
616.520508	20817.982422
615.308594	20872.970703
614.095703	20593.912109
612.882813	20694.275391
611.669922	20501.941406
610.457031	20676.453125
609.243164	20484.208984
608.029297	20098.462891
606.815430	20291.472656
605.600586	20274.423828
604.385742	20088.619141
603.170898	20302.070313
601.955078	20554.503906
600.740234	20504.498047
599.524414	20647.789063
598.307617	20472.386719
597.091797	20414.208984
595.875000	20625.224609
594.658203	20834.085938
593.440430	20654.689453
592.222656	20840.857422
591.004883	20581.480469
589.787109	20521.296875
588.568359	20387.275391
587.349609	20425.628906
586.130859	20119.410156
584.912109	19924.056641
583.692383	20149.033203
582.472656	19806.197266
581.251953	19961.429688
580.032227	20104.294922
578.811523	19993.134766
577.589844	20488.109375
576.369141	20645.080078
575.147461	21002.546875
573.925781	21300.507813
572.703125	21725.162109
571.481445	22323.460938
570.258789	22735.410156
569.035156	23343.416016
567.812500	23558.730469
566.588867	24045.703125
565.365234	24174.953125
564.140625	24743.250000
562.916992	24866.150391
561.692383	24995.115234
560.466797	24866.859375
559.242188	24412.185547
558.016602	24371.841797
556.791016	23909.333984
555.564453	23514.328125
554.337891	22791.292969
553.111328	22211.259766
551.884766	21464.408203
550.657227	21051.994141
549.429688	20482.947266
548.202148	20286.789063
546.974609	20161.972656
545.746094	20112.517578
544.517578	19947.101563
543.288086	20082.839844
542.058594	19980.552734
540.829102	19811.212891
539.599609	19717.166016
538.370117	19795.919922
537.139648	19677.533203
535.909180	19685.154297
534.677734	19544.507813
533.446289	19653.681641
532.214844	19381.148438
530.983398	19461.892578
529.750977	19301.130859
528.519531	19231.732422
527.286133	19432.115234
526.053711	19305.939453
524.820313	19058.187500
523.586914	19086.191406
522.353516	19369.496094
521.119141	19377.154297
519.884766	19403.035156
518.650391	19167.691406
517.415039	19098.458984
516.179688	19156.767578
514.944336	19168.507813
513.708984	19226.769531
