#Wave	#Intensity
2109.007813	2375.02832
2107.496094	2406.452637
2105.984375	2396.010986
2104.470703	2436.822998
2102.958984	2338.77832
2101.445313	2311.833008
2099.933594	2426.98291
2098.419922	2416.548096
2096.90625	2396.209229
2095.390625	2398.994141
2093.876953	2449.648193
2092.361328	2378.154541
2090.845703	2374.341553
2089.332031	2466.209229
2087.814453	2368.369873
2086.298828	2364.561523
2084.783203	2494.289063
2083.265625	2355.301514
2081.748047	2346.554932
2080.230469	2403.712402
2078.712891	2426.255127
2077.195313	2321.984619
2075.677734	2403.807129
2074.158203	2426.335205
2072.638672	2480.122559
2071.119141	2413.773926
2069.599609	2418.190186
2068.080078	2399.578857
2066.560547	2454.970215
2065.039063	2469.238525
2063.517578	2432.548584
2061.996094	2400.804199
2060.474609	2405.217529
2058.953125	2409.628906
2057.429688	2433.744873
2055.908203	2502.18042
2054.384766	2406.436768
2052.861328	2438.743652
2051.337891	2430.016602
2049.814453	2437.697998
2048.289063	2443.73584
2046.765625	2369.423828
2045.240234	2437.770508
2043.714844	2438.887451
2042.189453	2397.397949
2040.664063	2414.90625
2039.136719	2424.217285
2037.609375	2407.322021
2036.083984	2459.199951
2034.556641	2393.196533
2033.029297	2440.145508
2031.5	2339.813477
2029.972656	2411.291992
2028.443359	2381.336914
2026.914063	2402.085449
2025.386719	2453.886719
2023.855469	2505.666016
2022.326172	2385.838867
2020.796875	2494.792969
2019.265625	2407.687988
2017.734375	2462.698975
2016.203125	2424.620117
2014.671875	2443.691406
2013.140625	2423.585449
2011.607422	2390.434326
2010.076172	2447.021484
2008.542969	2395.938721
2007.009766	2480.22168
2005.476563	2469.910889
2003.943359	2418.855713
2002.408203	2389.007324
2000.875	2437.375977
1999.339844	2471.063721
1997.804688	2447.737305
1996.269531	2421.164551
1994.732422	2399.486328
1993.197266	2491.744629
1991.660156	2437.51709
1990.123047	2518.339844
1988.585938	2465.756104
1987.048828	2432.708496
1985.511719	2394.797607
1983.972656	2395.913574
1982.435547	2411.655029
1980.896484	2432.263916
1979.357422	2459.361572
1977.818359	2369.514893
1976.279297	2433.959961
1974.738281	2360.390625
1973.197266	2491.354492
1971.658203	2511.920166
1970.117188	2555.189453
1968.576172	2407.044922
1967.033203	2400.046875
1965.492188	2490.330322
1963.949219	2423.342041
1962.40625	2492.513916
1960.863281	2396.388428
1959.320313	2518.994629
1957.777344	2468.252441
1956.232422	2438.582275
1954.689453	2457.491455
1953.144531	2460.207031
1951.599609	2467.776123
1950.054688	2488.284912
1948.507813	2562.16333
1946.962891	2417.69043
1945.416016	2502.870361
1943.869141	2520.121094
1942.322266	2496.960449
1940.775391	2512.589355
1939.228516	2544.365967
1937.679688	2475.991211
1936.132813	2519.065674
1934.583984	2483.01416
1933.035156	2537.367432
1931.486328	2523.919678
1929.935547	2534.678711
1928.386719	2479.297119
1926.835938	2480.384766
1925.285156	2475.022217
1923.734375	2514.799316
1922.183594	2499.76123
1920.632813	2525.013916
1919.080078	2556.699707
1917.527344	2488.509766
1915.976563	2433.231201
1914.423828	2567.956299
1912.869141	2554.5354
1911.316406	2571.697266
1909.761719	2468.178223
1908.208984	2528.784424
1906.654297	2566.848389
1905.099609	2490.731201
1903.544922	2581.838623
1901.988281	2446.280762
1900.433594	2482.7229
1898.876953	2544.855225
1897.320313	2571.623291
1895.763672	2503.630859
1894.207031	2525.579346
1892.648438	2560.360596
1891.091797	2527.721191
1889.533203	2575.323486
1887.974609	2507.401611
1886.416016	2542.156982
1884.857422	2543.223145
1883.298828	2470.541016
1881.738281	2511.693359
1880.177734	2506.35498
1878.617188	2603.558838
1877.056641	2542.138184
1875.496094	2538.397705
1873.935547	2547.468262
1872.373047	2543.728271
1870.810547	2573.600342
1869.248047	2496.248779
1867.685547	2527.717773
1866.123047	2571.969238
1864.560547	2537.84375
1862.996094	2578.876465
1861.431641	2551.157715
1859.867188	2545.824219
1858.302734	2506.939453
1856.738281	2618.231934
1855.171875	2507.477539
1853.607422	2589.980469
1852.041016	2568.679688
1850.474609	2501.100586
1848.908203	2575.573486
1847.341797	2500.044189
1845.773438	2505.896484
1844.207031	2538.857178
1842.638672	2543.104248
1841.070313	2566.478516
1839.501953	2535.655273
1837.931641	2531.932861
1836.363281	2552.108154
1834.792969	2572.274902
1833.222656	2535.106201
1831.652344	2478.848633
1830.082031	2522.893555
1828.511719	2549.414551
1826.941406	2601.381104
1825.369141	2570.608154
1823.796875	2649.584473
1822.224609	2585.423096
1820.652344	2524.468018
1819.078125	2568.4375
1817.505859	2559.949951
1815.931641	2619.780273
1814.357422	2544.573486
1812.783203	2491.630859
1811.208984	2570.48999
1809.634766	2557.248047
1808.058594	2621.776367
1806.484375	2581.55542
1804.908203	2612.737549
1803.332031	2569.363037
1801.753906	2600.53418
1800.177734	2587.302246
1798.601563	2613.701172
1797.023438	2659.105225
1795.445313	2558.729492
1793.867188	2643.726074
1792.289063	2659.004395
1790.708984	2631.525879
1789.130859	2610.391113
1787.550781	2687.391113
1785.970703	2572.894531
1784.390625	2602.40918
1782.810547	2639.819824
1781.228516	2629.77417
1779.646484	2616.570557
1778.066406	2660.276855
1776.484375	2656.554199
1774.902344	2621.232666
1773.318359	2612.780762
1771.736328	2713.306396
1770.152344	2649.572998
1768.568359	2650.591797
1766.984375	2653.188477
1765.400391	2557.94751
1763.816406	2625.246826
1762.230469	2689.363037
1760.646484	2632.022461
1759.060547	2581.012695
1757.474609	2697.116455
1755.888672	2709.154541
1754.300781	2677.068359
1752.714844	2711.159912
1751.126953	2746.812012
1749.539063	2632.85498
1747.951172	2723.610107
1746.363281	2708.868164
1744.775391	2692.558838
1743.185547	2736.043213
1741.595703	2653.667969
1740.007813	2693.996582
1738.416016	2732.735596
1736.826172	2746.305664
1735.236328	2733.151367
1733.644531	2782.856445
1732.052734	2815.259277
1730.462891	2784.820801
1728.869141	2694.72168
1727.277344	2797.772705
1725.685547	2794.041504
1724.091797	2769.910156
1722.498047	2797.566406
1720.904297	2818.936035
1719.310547	2854.411621
1717.716797	2820.87915
1716.121094	2867.312744
1714.527344	2893.351074
1712.931641	2866.099121
1711.335938	2899.959717
1709.740234	2944.770508
1708.142578	2959.807129
1706.546875	2927.866455
1704.949219	2978.903809
1703.351563	2981.402832
1701.753906	2990.159668
1700.15625	2945.723877
1698.558594	2951.355957
1696.958984	3003.896973
1695.359375	3082.993164
1693.759766	3068.272461
1692.160156	2989.486328
1690.560547	3071.659424
1688.960938	3078.818604
1687.359375	3037.561279
1685.757813	3035.355957
1684.15625	3005.052246
1682.554688	3096.498535
1680.953125	3091.160645
1679.349609	3018.741699
1677.748047	3186.553711
1676.144531	3164.046143
1674.541016	3164.934082
1672.9375	3201.672607
1671.332031	3239.953857
1669.728516	3275.102539
1668.123047	3332.044678
1666.517578	3251.908691
1664.912109	3400.699707
1663.306641	3357.945313
1661.701172	3389.91748
1660.09375	3407.871094
1658.486328	3464.711182
1656.878906	3496.639893
1655.271484	3660.739258
1653.664063	3574.44873
1652.056641	3691.827881
1650.447266	3715.909668
1648.837891	3733.765625
1647.228516	3855.695801
1645.619141	3817.601074
1644.009766	3864.926758
1642.398438	3878.077393
1640.789063	4046.436523
1639.177734	4124.71875
1637.566406	4074.194092
1635.955078	4132.271484
1634.341797	4308.186523
1632.730469	4263.856445
1631.117188	4283.101074
1629.503906	4322.48584
1627.890625	4392.842773
1626.277344	4483.30957
1624.662109	4612.458008
1623.048828	4594.442383
1621.433594	4810.210449
1619.818359	4734.88916
1618.203125	4970.652344
1616.587891	5005.179199
1614.970703	5243.876953
1613.353516	5343.285156
1611.738281	5360.701172
1610.121094	5427.577148
1608.501953	5517.60791
1606.884766	5609.14502
1605.267578	5550.788574
1603.648438	5728.773926
1602.029297	5735.273438
1600.410156	5843.66748
1598.791016	5871.749023
1597.169922	6043.339355
1595.550781	5997.305664
1593.929688	6107.092285
1592.308594	6253.845215
1590.6875	6363.529297
1589.064453	6473.165527
1587.443359	6524.186523
1585.820313	6488.893066
1584.197266	6538.347168
1582.574219	6587.780273
1580.951172	6537.094238
1579.328125	6575.728027
1577.703125	6521.986816
1576.080078	6499.047363
1574.455078	6508.428711
1572.830078	6422.430176
1571.203125	6517.949707
1569.578125	6553.459473
1567.951172	6662.744629
1566.324219	6981.013672
1564.697266	7036.376953
1563.070313	6927.327637
1561.443359	7100.949707
1559.816406	6876.756836
1558.1875	6698.719727
1556.558594	6675.79541
1554.929688	6635.998535
1553.300781	6590.080566
1551.669922	6610.145508
1550.041016	6518.240723
1548.410156	6622.646973
1546.779297	6356.010254
1545.148438	6369.975098
1543.517578	6362.47998
1541.884766	6325.878418
1540.251953	6226.490723
1538.621094	6157.773438
1536.988281	6026.311523
1535.353516	5991.341797
1533.720703	5912.004883
1532.085938	5877.07373
1530.453125	5877.342285
1528.818359	5963.257813
1527.183594	5845.765137
1525.546875	5862.85498
1523.912109	5739.319824
1522.275391	5709.052734
1520.640625	5782.6875
1519.003906	5688.269531
1517.365234	5671.775391
1515.728516	5633.912598
1514.091797	5553.324219
1512.453125	5419.35498
1510.814453	5361.733887
1509.175781	5432.27832
1507.537109	5455.512207
1505.896484	5472.635742
1504.257813	5523.291016
1502.617188	5494.666504
1500.976563	5520.912598
1499.335938	5495.347168
1497.693359	5760.722656
1496.052734	5808.212891
1494.410156	5992.710938
1492.767578	6192.351074
1491.125	6154.491211
1489.482422	6017.745605
1487.837891	5992.108398
1486.195313	5712.491699
1484.550781	5580.490234
1482.90625	5471.349121
1481.261719	5179.864746
1479.617188	5262.32373
1477.970703	5173.070801
1476.324219	5149.169922
1474.677734	5146.539063
1473.03125	5101.397461
1471.384766	5157.977051
1469.738281	5293.447754
1468.089844	5264.992676
1466.441406	5109.124512
1464.792969	5042.804688
1463.144531	5120.561523
1461.496094	5019.399414
1459.845703	5028.92334
1458.197266	5092.993652
1456.546875	5058.561523
1454.896484	4959.013184
1453.244141	4854.964844
1451.59375	4770.643066
1449.941406	4827.129395
1448.291016	4727.71582
1446.638672	4746.360352
1444.984375	4631.879395
1443.332031	4704.981445
1441.679688	4655.576172
1440.025391	4600.144531
1438.371094	4685.295898
1436.716797	4543.750977
1435.0625	4515.571777
1433.40625	4578.028809
1431.75	4503.041504
1430.095703	4422.047363
1428.439453	4467.878906
1426.78125	4444.271973
1425.125	4423.692383
1423.466797	4471.000977
1421.810547	4471.537598
1420.152344	4417.792969
1418.494141	4407.788086
1416.833984	4458.071289
1415.175781	4470.663086
1413.515625	4620.336914
1411.855469	4583.184082
1410.195313	4543.035645
1408.535156	4526.991699
1406.875	4625.346191
1405.212891	4695.065918
1403.550781	4709.087891
1401.888672	4647.89502
1400.226563	4761.174316
1398.564453	4681.953613
1396.900391	4649.365723
1395.238281	4637.832031
1393.574219	4653.348145
1391.910156	4649.328613
1390.244141	4775.973633
1388.580078	4627.779297
1386.914063	4709.336426
1385.248047	4591.238281
1383.582031	4707.279785
1381.916016	4701.750977
1380.25	4640.727051
1378.582031	4660.707031
1376.916016	4641.697266
1375.248047	4606.207031
1373.578125	4723.589355
1371.910156	4701.580078
1370.242188	4681.078125
1368.572266	4784.887207
1366.902344	4804.802246
1365.232422	4740.87793
1363.5625	4757.799316
1361.890625	4854.01709
1360.220703	4814.058594
1358.548828	4798.046875
1356.876953	4891.200684
1355.205078	4882.653809
1353.53125	4987.70459
1351.859375	4976.150391
1350.185547	4954.142578
1348.511719	5154.703125
1346.837891	5264.080078
1345.164063	5267.403809
1343.488281	5452.834961
1341.8125	5535.210449
1340.138672	5536.979004
1338.460938	5537.253906
1336.785156	5556.916992
1335.109375	5494.562012
1333.431641	5506.770508
1331.753906	5505.55957
1330.076172	5438.785645
1328.398438	5448.01709
1326.720703	5490.011719
1325.041016	5497.737793
1323.361328	5496.527832
1321.681641	5398.568848
1320.001953	5331.902832
1318.322266	5315.850586
1316.640625	5280.467773
1314.960938	5389.351563
1313.279297	5135.407715
1311.597656	5158.059082
1309.914063	5139.087402
1308.232422	5100.808594
1306.548828	5095.226563
1304.865234	5043.606934
1303.181641	5032.099609
1301.498047	4974.577148
1299.814453	4912.627441
1298.128906	4832.898438
1296.443359	4696.830078
1294.757813	4675.027344
1293.072266	4682.891113
1291.386719	4606.246582
1289.699219	4553.350586
1288.011719	4516.777832
1286.324219	4404.662109
1284.636719	4517.741699
1282.949219	4488.60498
1281.259766	4486.130371
1279.572266	4479.21582
1277.882813	4522.621094
1276.193359	4628.149414
1274.501953	4600.497559
1272.8125	4655.676758
1271.121094	4688.652832
1269.429688	4578.220703
1267.738281	4597.896484
1266.046875	4559.935547
1264.353516	4651.993164
1262.662109	4650.960449
1260.96875	4667.647461
1259.275391	4806.860352
1257.582031	4802.84082
1255.886719	4826.859863
1254.193359	4607.438965
1252.498047	4749.489746
1250.802734	4826.591309
1249.107422	4834.36377
1247.410156	4789.067871
1245.714844	4789.476074
1244.017578	4778.097168
1242.320313	4682.759766
1240.623047	4543.283203
1238.925781	4417.119629
1237.226563	4317.508789
1235.527344	4282.697266
1233.828125	4097.819336
1232.128906	4082.195068
1230.429688	4135.702148
1228.728516	4034.792236
1227.029297	3991.26001
1225.328125	4057.978027
1223.626953	3904.252441
1221.923828	3938.63916
1220.222656	3967.135254
1218.519531	3845.837402
1216.816406	3833.233398
1215.113281	3785.407959
1213.410156	3769.887451
1211.707031	3798.387207
1210.001953	3721.264404
1208.296875	3682.303955
1206.591797	3621.368652
1204.886719	3586.844482
1203.179688	3643.195801
1201.474609	3649.706055
1199.767578	3543.421143
1198.060547	3623.175049
1196.353516	3603.329102
1194.644531	3555.678711
1192.9375	3531.465576
1191.228516	3567.253662
1189.519531	3619.116699
1187.810547	3684.119141
1186.099609	3575.089355
1184.390625	3612.296143
1182.679688	3516.484619
1180.96875	3546.380859
1179.257813	3511.984131
1177.544922	3471.76001
1175.833984	3428.633301
1174.121094	3522.756836
1172.408203	3513.20752
1170.695313	3529.928955
1168.982422	3482.449463
1167.267578	3414.570801
1165.552734	3466.300293
1163.837891	3380.959961
1162.123047	3340.843506
1160.408203	3357.578613
1158.691406	3479.206787
1156.976563	3439.094238
1155.259766	3388.80542
1153.541016	3364.746094
1151.824219	3331.963623
1150.107422	3424.352539
1148.388672	3416.30542
1146.669922	3328.255371
1144.951172	3314.415527
1143.230469	3326.753662
1141.511719	3221.338379
1139.791016	3232.237793
1138.070313	3253.303223
1136.349609	3326.655273
1134.628906	3277.97583
1132.90625	3211.893799
1131.185547	3142.937744
1129.462891	3126.261963
1127.740234	3160.380127
1126.015625	3082.7771
1124.292969	2970.399658
1122.568359	3017.579346
1120.84375	3050.240234
1119.119141	3048.100342
1117.394531	2934.381836
1115.667969	2922.127197
1113.941406	2973.608398
1112.214844	2915.010742
1110.488281	2866.57373
1108.761719	2902.109863
1107.033203	2862.379639
1105.306641	2910.920898
1103.578125	2988.368896
1101.849609	2963.106689
1100.119141	2888.698486
1098.390625	2973.325195
1096.660156	2988.546387
1094.929688	3034.101563
1093.199219	2985.744141
1091.46875	2918.634521
1089.736328	2861.661865
1088.003906	2848.019775
1086.273438	2851.70166
1084.539063	2825.081787
1082.806641	2752.313477
1081.074219	2771.877686
1079.339844	2690.502686
1077.605469	2728.811523
1075.871094	2686.395264
1074.134766	2631.030273
1072.400391	2621.787598
1070.664063	2645.673584
1068.927734	2645.070557
1067.191406	2671.819092
1065.455078	2652.499756
1063.716797	2699.378418
1061.978516	2754.866943
1060.240234	2715.405762
1058.501953	2736.354736
1056.763672	2714.166016
1055.023438	2781.097412
1053.283203	2641.079834
1051.542969	2669.208496
1049.802734	2585.294678
1048.0625	2643.577393
1046.320313	2604.211426
1044.578125	2738.533203
1042.835938	2646.069092
1041.09375	2774.580811
1039.351563	2693.624756
1037.607422	2803.424561
1035.863281	2725.365723
1034.119141	2733.341553
1032.375	2696.890625
1030.628906	2684.811523
1028.884766	2622.605957
1027.138672	2640.62085
1025.392578	2581.31665
1023.646484	2607.92041
1021.898438	2582.994873
1020.152344	2579.541016
1018.404297	2610.416992
1016.65625	2556.906738
1014.90625	2547.741455
1013.158203	2437.093994
1011.408203	2555.145752
1009.658203	2488.837402
1007.908203	2489.694092
1006.158203	2446.279785
1004.40625	2459.994873
1002.65625	2476.55835
1000.904297	2517.374023
999.150391	2522.502197
997.398438	2476.276123
995.646484	2472.854004
993.892578	2439.492188
992.138672	2451.759521
990.384766	2505.349365
988.628906	2580.285889
986.875	2542.655518
985.119141	2573.400391
983.363281	2579.92627
981.607422	2540.897949
979.849609	2550.273926
978.09375	2546.840088
976.335938	2543.407715
974.578125	2555.620361
972.820313	2516.641113
971.060547	2464.885986
969.300781	2477.107666
967.542969	2539.052734
965.78125	2518.579102
964.021484	2464.030029
962.261719	2491.85791
960.5	2516.833496
958.738281	2506.317383
956.976563	2501.481201
955.214844	2573.248535
953.451172	2507.415283
951.6875	2489.820313
949.923828	2439.629395
948.160156	2582.205566
946.396484	2490.925537
944.630859	2464.850342
942.865234	2416.126953
941.099609	2504.770264
939.333984	2436.241455
937.568359	2405.956055
935.800781	2501.614258
934.033203	2461.425049
932.265625	2402.868652
930.498047	2345.753174
928.730469	2394.685791
926.960938	2323.465088
925.191406	2339.881592
923.421875	2282.83252
921.652344	2352.918213
919.880859	2334.016113
918.109375	2248.77417
916.337891	2307.527832
914.566406	2288.648438
912.794922	2331.847412
911.021484	2301.687988
909.248047	2339.223389
907.474609	2294.97876
905.701172	2390.281738
903.927734	2329.136963
902.152344	2339.864746
900.376953	2313.969238
898.601563	2378.200928
896.826172	2369.200928
895.050781	2268.723877
893.273438	2362.468994
891.496094	2333.783691
889.71875	2390.902832
887.939453	2408.624756
886.162109	2499.437256
884.382813	2487.611084
882.603516	2463.144287
880.824219	2430.259766
879.044922	2388.963867
877.263672	2372.961182
875.482422	2338.716309
873.701172	2418.167725
871.919922	2302.545898
870.138672	2285.174561
868.355469	2263.603516
866.572266	2284.106934
864.789063	2210.678223
863.005859	2240.994629
861.220703	2244.674316
859.435547	2206.32666
857.650391	2218.415283
855.865234	2224.897461
854.080078	2171.182129
852.292969	2204.262939
850.505859	2230.332031
848.71875	2247.995361
846.931641	2250.266113
845.144531	2207.79248
843.355469	2238.029297
841.566406	2153.650879
839.777344	2209.035889
837.988281	2124.703613
836.197266	2147.94751
834.408203	2164.198975
832.617188	2119.021973
830.824219	2210.634766
829.033203	2233.835938
827.240234	2222.152344
825.449219	2137.953613
823.65625	2162.549316
821.861328	2177.375244
820.068359	2123.906006
818.273438	2155.453369
816.478516	2156.340088
814.683594	2186.472168
812.888672	2126.088379
811.091797	2225.812988
809.296875	2165.447998
807.5	2145.459961
805.701172	2104.615967
803.904297	2099.949219
802.105469	2056.35376
800.308594	2051.700195
798.509766	2102.636963
796.708984	2093.805908
794.910156	2105.814697
793.109375	2040.048584
791.308594	2171.466797
789.507813	2101.551758
787.707031	2085.791504
785.904297	2028.415771
784.101563	2090.357422
782.298828	2085.70459
780.496094	2079.66748
778.693359	2090.266113
776.888672	2021.869751
775.083984	2133.615723
773.279297	2104.024658
771.474609	2114.606934
769.667969	2145.951416
767.861328	2085.92627
766.054688	2079.898926
764.248047	2058.655518
762.441406	2137.010742
760.632813	2119.912109
758.824219	2048.902832
757.015625	2045.654541
755.207031	2034.116455
753.398438	2044.688354
751.587891	2122.934814
749.777344	2101.719727
747.966797	2081.895264
746.154297	2030.334229
744.34375	2178.88501
742.53125	2294.255371
740.71875	2328.194336
738.90625	2497.25293
737.091797	2637.280518
735.277344	2717.975342
733.464844	2790.364014
731.648438	2850.31958
729.833984	2725.6875
728.019531	2630.030762
726.203125	2477.976318
724.386719	2335.627686
722.568359	2260.770508
720.751953	2133.673096
718.933594	2207.436523
717.115234	2195.91333
715.296875	2079.918457
713.478516	2091.794922
711.658203	2011.60437
709.839844	2070.19751
708.019531	2039.492065
706.197266	2085.692871
704.376953	2122.262451
702.554688	2076.469238
700.734375	2051.279053
698.910156	2009.639404
697.087891	2016.019775
695.265625	2033.365967
693.441406	2106.906006
691.617188	2043.364624
689.792969	2105.906006
687.966797	2120.473877
686.140625	2065.190918
684.316406	2155.065186
682.490234	2068.31665
680.662109	2036.349365
678.835938	2016.71106
677.007813	2016.231812
675.179688	2019.855347
673.351563	1945.545776
671.521484	2014.794678
669.693359	2073.077881
667.863281	2045.260376
666.033203	2052.969482
664.201172	1991.029785
662.371094	2058.81958
660.539063	2046.045288
658.707031	2108.330811
656.875	2122.836426
655.041016	2022.761841
653.208984	2183.190186
651.375	2109.051514
649.541016	2069.022705
647.705078	2117.586182
645.871094	2074.849365
644.035156	2059.373291
642.199219	2030.287231
640.363281	2057.031006
638.525391	2006.182495
636.689453	2020.672485
634.851563	2031.074341
633.013672	1946.265869
631.173828	1982.515259
629.335938	1979.323975
627.496094	1932.642822
625.65625	1948.487549
623.816406	1937.155396
621.974609	1957.065552
620.132813	1960.672363
618.292969	1958.84729
616.449219	1985.523315
614.607422	1959.269897
612.763672	1950.663574
610.921875	1965.116333
609.078125	1967.359253
607.232422	1890.979492
605.388672	1963.710083
603.542969	1918.530029
601.697266	1874.72583
599.851563	1902.717529
598.005859	1898.20166
596.158203	1946.478149
594.310547	1923.00769
592.462891	1891.430664
590.615234	1858.515869
588.765625	1906.755127
586.916016	1894.131836
585.066406	1931.526001
583.216797	1866.200317
581.367188	1892.774902
579.515625	1904.479004
577.664063	1856.760986
575.8125	1899.518921
573.960938	1926.059448
572.107422	1914.803955
570.253906	1860.383057
568.400391	1881.518555
566.546875	1840.615723
564.693359	1855.005005
562.837891	1876.126221
560.982422	1847.380859
559.126953	1824.037598
557.269531	1826.295166
555.414063	1808.353882
553.556641	1795.805786
551.699219	1827.67688
549.841797	1761.308472
547.982422	1844.290527
546.123047	1877.47168
544.263672	1850.131104
542.404297	1847
540.544922	1833.118774
538.683594	1882.393677
536.822266	1821.495361
534.960938	1865.377319
533.099609	1846.133911
531.236328	1837.638184
529.373047	1803.648438
527.509766	1834.075317
525.646484	1891.314697
523.783203	2077.266113
521.917969	2484.346436
520.052734	3007.846191
518.1875	2716.329834
516.320313	2229.349121
514.455078	2022.542847
512.587891	1860.026001
510.720703	1899.744385
508.853516	1863.150757
506.984375	1799.811523
505.115234	1864.934204
503.246094	1840.412354
501.376953	1799.855957
499.507813	1752.634399
497.636719	1798.993774
495.765625	1771.838379
493.894531	1758.05481
492.021484	1770.989624
490.150391	1774.571167
488.277344	1744.777222
486.404297	1779.059448
484.53125	1738.604004
482.65625	1760.865234
480.78125	1716.432251
478.90625	1768.021729
477.03125	1778.262329
475.15625	1781.834351
473.279297	1712.123047
471.402344	1751.674927
469.525391	1716.629639
467.648438	1762.818481
465.769531	1750.415894
463.890625	1771.289185
462.011719	1721.637085
460.132813	1762.459351
458.251953	1795.282959
456.371094	1806.818359
454.490234	1819.677368
452.609375	1788.677002
450.728516	1788.248291
448.845703	1818.369385
446.962891	1836.524536
445.080078	1782.97998
443.197266	1799.807495
441.3125	1791.414185
439.427734	1830.784546
437.542969	1758.723511
435.658203	1727.803589
433.771484	1741.972168
431.886719	1666.00769
430	1681.509155
428.111328	1708.925903
426.224609	1688.649902
424.335938	1657.790527
422.447266	1727.554321
420.558594	1725.816895
418.669922	1687.031494
416.779297	1709.115601
414.888672	1676.96521
412.998047	1701.685303
411.107422	1713.174561
409.214844	1740.51709
407.324219	1707.068481
405.431641	1701.37561
403.537109	1691.723511
401.644531	1705.841431
399.75	1706.752686
