#Wave		#Intensity
1585.210938	21941.818359
1584.209961	21989.273438
1583.208984	22376.767578
1582.208008	22272.267578
1581.206055	22092.925781
1580.204102	21723.994141
1579.202148	21791.851563
1578.200195	22051.757813
1577.198242	21685.556641
1576.195313	21750.882813
1575.192383	21654.136719
1574.189453	21407.880859
1573.186523	21229.009766
1572.182617	21319.287109
1571.178711	21005.998047
1570.174805	21190.917969
1569.170898	20882.761719
1568.166992	21050.205078
1567.162109	21103.089844
1566.158203	20708.046875
1565.153320	20524.634766
1564.147461	20562.669922
1563.142578	20690.212891
1562.136719	20546.695313
1561.130859	20870.562500
1560.125000	20592.863281
1559.119141	20330.185547
1558.113281	20892.380859
1557.106445	20602.425781
1556.099609	20588.228516
1555.092773	21085.468750
1554.084961	21227.550781
1553.078125	21391.908203
1552.070313	21362.667969
1551.062500	21596.384766
1550.054688	21425.746094
1549.045898	21793.250000
1548.038086	21977.148438
1547.029297	22426.179688
1546.020508	22312.501953
1545.011719	22357.431641
1544.001953	22969.585938
1542.992188	23118.375000
1541.982422	23529.558594
1540.972656	23598.953125
1539.962891	23717.816406
1538.952148	23680.738281
1537.942383	24190.419922
1536.931641	23980.115234
1535.919922	24138.363281
1534.909180	23666.076172
1533.897461	23569.716797
1532.886719	23804.562500
1531.874023	23189.324219
1530.862305	23211.697266
1529.850586	22903.095703
1528.837891	22347.687500
1527.825195	22313.433594
1526.812500	22286.599609
1525.799805	21756.337891
1524.786133	21744.431641
1523.772461	21377.308594
1522.758789	21555.388672
1521.745117	21225.441406
1520.731445	21134.761719
1519.716797	20994.824219
1518.702148	20702.158203
1517.687500	20991.056641
1516.672852	20964.541016
1515.657227	20728.703125
1514.642578	20694.865234
1513.626953	20747.197266
1512.610352	21109.617188
1511.594727	20694.312500
1510.579102	20596.541016
1509.562500	20835.781250
1508.545898	20789.660156
1507.529297	20475.564453
1506.511719	20628.644531
1505.494141	20675.980469
1504.477539	20514.443359
1503.458984	20613.371094
1502.441406	20726.992188
1501.423828	20486.962891
1500.405273	20431.162109
1499.386719	20645.384766
1498.368164	20496.318359
1497.348633	20433.187500
1496.330078	20622.744141
1495.310547	20814.673828
1494.291016	20655.882813
1493.271484	20989.912109
1492.250977	20711.048828
1491.231445	20768.019531
1490.210938	20915.615234
1489.190430	20734.917969
1488.168945	20706.130859
1487.148438	20760.601563
1486.126953	20665.724609
1485.105469	20803.392578
1484.083984	20906.746094
1483.061523	21173.968750
1482.040039	21103.539063
1481.017578	21091.826172
1479.995117	21099.679688
1478.971680	21452.189453
1477.949219	21645.697266
1476.925781	21467.726563
1475.902344	21873.681641
1474.878906	21908.224609
1473.855469	22304.150391
1472.831055	22162.806641
1471.806641	22746.458984
1470.782227	22883.283203
1469.757813	22941.972656
1468.733398	23244.570313
1467.708008	23532.410156
1466.682617	23773.800781
1465.657227	24058.970703
1464.631836	24536.568359
1463.605469	25045.646484
1462.579102	25237.791016
1461.552734	25773.304688
1460.526367	25841.013672
1459.500000	26393.220703
1458.472656	26604.394531
1457.445313	27251.126953
1456.417969	27469.332031
1455.390625	27385.781250
1454.362305	27428.742188
1453.334961	27313.617188
1452.306641	27198.539063
1451.277344	26755.355469
1450.249023	26453.308594
1449.219727	25964.294922
1448.191406	25368.595703
1447.162109	24933.439453
1446.131836	24678.152344
1445.102539	24228.751953
1444.072266	23956.722656
1443.041992	23340.212891
1442.011719	23126.707031
1440.981445	22920.568359
1439.950195	22493.818359
1438.918945	22341.236328
1437.887695	22162.050781
1436.856445	22380.425781
1435.825195	22002.601563
1434.792969	21813.902344
1433.760742	21215.931641
1432.728516	21598.990234
1431.696289	21635.660156
1430.663086	21316.472656
1429.629883	21387.066406
1428.596680	21169.687500
1427.563477	21225.763672
1426.530273	21182.648438
1425.496094	20982.371094
1424.461914	20615.357422
1423.427734	20519.216797
1422.393555	20565.697266
1421.358398	20532.423828
1420.323242	20581.294922
1419.288086	20683.277344
1418.252930	20304.703125
1417.217773	20481.537109
1416.181641	20409.691406
1415.145508	20328.222656
1414.109375	20519.412109
1413.073242	20551.322266
1412.036133	20696.562500
1411.000000	20738.064453
1409.962891	20830.169922
1408.924805	20924.644531
1407.887695	21002.212891
1406.849609	21376.068359
1405.812500	21554.667969
1404.773438	22051.064453
1403.735352	22032.023438
1402.697266	22280.177734
1401.658203	22660.589844
1400.619141	22862.791016
1399.580078	22997.548828
1398.540039	23322.251953
1397.500977	22961.509766
1396.460938	23062.500000
1395.420898	23016.830078
1394.380859	23346.058594
1393.339844	22762.164063
1392.298828	22867.912109
1391.257813	22659.005859
1390.216797	22476.595703
1389.175781	22584.734375
1388.133789	22493.617188
1387.091797	22469.724609
1386.049805	22692.947266
1385.007813	22935.263672
1383.964844	22848.941406
1382.922852	22923.291016
1381.879883	23093.490234
1380.835938	23237.253906
1379.792969	23474.404297
1378.749023	23771.343750
1377.706055	24084.923828
1376.661133	23706.337891
1375.617188	23768.417969
1374.573242	24093.763672
1373.528320	24100.693359
1372.483398	24399.513672
1371.438477	24171.949219
1370.392578	24111.888672
1369.347656	23891.650391
1368.301758	24259.583984
1367.255859	23922.289063
1366.208984	24311.564453
1365.163086	24213.304688
1364.116211	24308.558594
1363.069336	24100.486328
1362.022461	24233.921875
1360.974609	24341.042969
1359.927734	24431.410156
1358.879883	24734.101563
1357.832031	24437.880859
1356.783203	24561.558594
1355.735352	24816.333984
1354.686523	25152.060547
1353.637695	25361.314453
1352.588867	25170.121094
1351.539063	25541.294922
1350.490234	25921.841797
1349.440430	26552.292969
1348.390625	26920.558594
1347.339844	27443.404297
1346.290039	27661.378906
1345.239258	28474.158203
1344.188477	28610.933594
1343.137695	29147.251953
1342.085938	29573.951172
1341.034180	30064.664063
1339.982422	30502.873047
1338.930664	30841.080078
1337.878906	31162.507813
1336.826172	30968.296875
1335.773438	31581.697266
1334.720703	31499.080078
1333.667969	31613.544922
1332.614258	31186.779297
1331.561523	31374.824219
1330.507813	31095.384766
1329.453125	31027.177734
1328.399414	30423.013672
1327.344727	30366.828125
1326.290039	29955.072266
1325.235352	29351.505859
1324.180664	29342.966797
1323.125000	29239.664063
1322.070313	29332.998047
1321.014648	29061.601563
1319.958008	28989.195313
1318.902344	28661.167969
1317.845703	28513.140625
1316.789063	28478.748047
1315.732422	27895.541016
1314.675781	27563.281250
1313.618164	27120.023438
1312.560547	26691.132813
1311.502930	26335.693359
1310.445313	25852.792969
1309.386719	25741.029297
1308.329102	24996.255859
1307.270508	24405.300781
1306.210938	24038.902344
1305.152344	23904.000000
1304.092773	23582.701172
1303.033203	23110.517578
1301.973633	22928.708984
1300.914063	22739.898438
1299.853516	22204.515625
1298.792969	22275.279297
1297.732422	22133.865234
1296.671875	21976.011719
1295.611328	22143.375000
1294.549805	21757.082031
1293.488281	21733.650391
1292.426758	21646.648438
1291.364258	21439.617188
1290.302734	21472.750000
1289.240234	21458.802734
1288.177734	21324.873047
1287.114258	21388.582031
1286.051758	21118.320313
1284.988281	21287.847656
1283.924805	20956.601563
1282.861328	21156.640625
1281.796875	21257.906250
1280.732422	21622.240234
1279.667969	21356.958984
1278.603516	21054.216797
1277.539063	21524.005859
1276.473633	21392.703125
1275.408203	21442.150391
1274.342773	21444.652344
1273.277344	21599.625000
1272.210938	21330.039063
1271.145508	21578.757813
1270.079102	21555.433594
1269.011719	21239.150391
1267.945313	21012.041016
1266.877930	21009.933594
1265.810547	20902.421875
1264.743164	21111.093750
1263.674805	21031.699219
1262.607422	20957.017578
1261.539063	20739.609375
1260.470703	20356.166016
1259.401367	20312.082031
1258.333008	20382.615234
1257.263672	20462.470703
1256.194336	19859.652344
1255.125000	20063.457031
1254.054688	19818.507813
1252.985352	19811.964844
1251.915039	19782.066406
1250.843750	19658.763672
1249.773438	19666.263672
1248.702148	19573.380859
1247.630859	19312.501953
1246.559570	19327.064453
1245.488281	19577.238281
1244.416016	19230.222656
1243.343750	19433.669922
1242.271484	19219.716797
1241.199219	18956.904297
1240.125977	19069.390625
1239.053711	19242.404297
1237.980469	19261.605469
1236.906250	19350.662109
1235.833008	19013.585938
1234.758789	19170.164063
1233.684570	19359.255859
1232.610352	19252.751953
1231.536133	19209.103516
1230.460938	19428.298828
1229.385742	19282.310547
1228.310547	19378.173828
1227.235352	19153.224609
1226.159180	19063.158203
1225.083008	18891.808594
1224.006836	19294.292969
1222.930664	18958.070313
1221.853516	19279.099609
1220.777344	19105.523438
1219.700195	19477.441406
1218.622070	19473.285156
1217.544922	19248.734375
1216.466797	19337.404297
1215.388672	19504.880859
1214.310547	19456.666016
1213.232422	19519.732422
1212.153320	19554.960938
1211.074219	19587.855469
1209.995117	19743.507813
1208.916016	19961.626953
1207.835938	20010.617188
1206.755859	19939.203125
1205.675781	19830.787109
1204.595703	19872.828125
1203.514648	19739.019531
1202.434570	19686.224609
1201.353516	19762.951172
1200.271484	19483.589844
1199.190430	19569.570313
1198.108398	19678.623047
1197.026367	19466.460938
1195.944336	19381.439453
1194.862305	19289.525391
1193.779297	19135.304688
1192.696289	19103.501953
1191.613281	18926.302734
1190.530273	18788.406250
1189.446289	18818.986328
1188.362305	18955.654297
1187.278320	18513.429688
1186.194336	18654.712891
1185.109375	18459.386719
1184.024414	18602.921875
1182.939453	18550.544922
1181.854492	18717.033203
1180.768555	18514.945313
1179.683594	18135.638672
1178.597656	18523.111328
1177.510742	18233.728516
1176.424805	18190.691406
1175.337891	18276.509766
1174.250977	18357.689453
1173.164063	18073.183594
1172.077148	18230.242188
1170.989258	18189.542969
1169.901367	18050.039063
1168.813477	18062.242188
1167.724609	18028.492188
1166.636719	18279.548828
1165.547852	18142.435547
1164.458984	18147.714844
1163.369141	18274.636719
1162.280273	18110.070313
1161.190430	18225.472656
1160.100586	18276.597656
1159.010742	18336.871094
1157.919922	18234.332031
1156.829102	18425.246094
1155.738281	18574.824219
1154.647461	18506.664063
1153.555664	18383.554688
1152.464844	18416.234375
1151.373047	18469.507813
1150.280273	18509.021484
1149.188477	18159.417969
1148.095703	18015.912109
1147.002930	18314.015625
1145.910156	18008.134766
1144.817383	18118.589844
1143.723633	17870.039063
1142.629883	18083.333984
1141.536133	17992.583984
1140.441406	17741.931641
1139.347656	17886.582031
1138.252930	17971.787109
1137.158203	17766.964844
1136.062500	17957.169922
1134.967773	17768.412109
1133.872070	17645.910156
1132.776367	17970.615234
1131.679688	17948.480469
1130.583984	17919.511719
1129.487305	17920.193359
1128.390625	17918.591797
1127.292969	17848.623047
1126.196289	18056.654297
1125.098633	17845.449219
1124.000977	17878.023438
1122.903320	17865.041016
1121.804688	18047.839844
1120.706055	18134.966797
1119.607422	18135.585938
1118.508789	18038.378906
1117.409180	17722.861328
1116.310547	18012.363281
1115.210938	17744.728516
1114.110352	17777.246094
1113.010742	17625.673828
1111.910156	17619.576172
1110.809570	17824.730469
1109.708984	17543.792969
1108.607422	17558.146484
1107.506836	17647.406250
1106.405273	17575.484375
1105.303711	17680.580078
1104.201172	17651.783203
1103.098633	17434.746094
1101.996094	17374.265625
1100.893555	17565.457031
1099.791016	17158.181641
1098.687500	17297.212891
1097.583984	17263.996094
1096.480469	17217.201172
1095.376953	17405.947266
1094.272461	17397.628906
1093.167969	17525.132813
1092.063477	17688.789063
1090.958008	17773.179688
1089.853516	17755.734375
1088.748047	17740.556641
1087.642578	18096.216797
1086.536133	18076.447266
1085.430664	18434.136719
1084.324219	18265.158203
1083.217773	18663.314453
1082.110352	19083.880859
1081.003906	19115.847656
1079.896484	19220.046875
1078.789063	19459.634766
1077.680664	19832.261719
1076.573242	19717.375000
1075.464844	19938.644531
1074.356445	19753.867188
1073.247070	19733.767578
1072.138672	19558.130859
1071.029297	19499.765625
1069.919922	19500.009766
1068.809570	19295.246094
1067.700195	18836.060547
1066.589844	19068.380859
1065.479492	18397.818359
1064.368164	18369.033203
1063.257813	18477.531250
1062.146484	18003.267578
1061.035156	17745.150391
1059.922852	17777.246094
1058.811523	17703.654297
1057.699219	17612.107422
1056.586914	17491.386719
1055.473633	17626.859375
1054.361328	17398.357422
1053.248047	17318.181641
1052.134766	17136.998047
1051.021484	17283.650391
1049.907227	17421.257813
1048.792969	17240.164063
1047.678711	17247.599609
1046.564453	17084.564453
1045.449219	17118.937500
1044.333984	17256.421875
1043.218750	17041.935547
1042.103516	17383.302734
1040.987305	16949.310547
1039.871094	17113.587891
1038.754883	17262.113281
1037.638672	17206.822266
1036.521484	17353.021484
1035.404297	17252.970703
1034.287109	17296.164063
1033.169922	17281.175781
1032.051758	17293.029297
1030.933594	17260.156250
1029.815430	17448.617188
1028.697266	17364.312500
1027.578125	17427.527344
1026.458984	17419.222656
1025.339844	17285.837891
1024.220703	17270.865234
1023.100586	17494.787109
1021.980469	17303.433594
1020.860352	17645.523438
1019.740234	17485.453125
1018.619141	17358.912109
1017.498047	17337.244141
1016.376953	17543.009766
1015.255859	17519.076172
1014.133789	17446.123047
1013.011719	17237.279297
1011.889648	17298.078125
1010.767578	17588.250000
1009.644531	17452.990234
1008.521484	17264.359375
1007.398438	17264.998047
1006.274414	17250.058594
1005.151367	17279.617188
1004.027344	17177.931641
1002.902344	17218.609375
1001.778320	17628.332031
1000.653320	17766.693359
999.528320	17331.638672
998.403320	17254.486328
997.278320	17321.750000
996.152344	17406.750000
995.026367	17316.304688
993.900391	17372.408203
992.773438	17401.851563
991.646484	17386.904297
990.519531	17265.480469
989.392578	17476.789063
988.265625	17446.308594
987.137695	17444.658203
986.009766	17458.523438
984.881836	17514.482422
983.752930	17741.001953
982.624023	17819.019531
981.495117	17529.406250
980.366211	17552.083984
979.236328	17437.517578
978.106445	17555.361328
976.976563	17290.394531
975.846680	17275.496094
974.715820	17065.992188
973.585938	17110.843750
972.454102	17341.355469
971.323242	17284.462891
970.191406	17006.642578
969.060547	17250.273438
967.927734	17297.236328
966.795898	17242.605469
965.663086	17402.128906
964.530273	17245.972656
963.397461	17418.662109
962.264648	17741.287109
961.130859	17911.580078
959.997070	17722.365234
958.863281	18119.658203
957.729492	17963.541016
956.594727	18109.386719
955.459961	17781.492188
954.325195	17940.527344
953.189453	17727.326172
952.053711	17461.378906
950.917969	17453.083984
949.782227	17035.464844
948.646484	17097.673828
947.509766	17164.250000
946.373047	17008.677734
945.235352	16993.888672
944.098633	16840.619141
942.960938	16691.810547
941.823242	16997.896484
940.685547	16978.724609
939.546875	16781.662109
938.408203	16933.814453
937.269531	16954.181641
936.129883	16941.615234
934.991211	16898.332031
933.851563	16817.771484
932.711914	17072.826172
931.571289	16998.837891
930.431641	17063.000000
929.291016	17120.556641
928.149414	17221.912109
927.008789	17272.832031
925.867188	17376.296875
924.725586	17383.357422
923.583984	17062.003906
922.441406	17285.830078
921.299805	16903.363281
920.157227	17078.988281
919.013672	16878.294922
917.871094	16986.046875
916.727539	16669.578125
915.583984	16510.638672
914.439453	16452.300781
913.295898	16450.798828
912.151367	16399.050781
911.006836	16550.439453
909.861328	16184.262695
908.716797	16272.319336
907.571289	16355.970703
906.424805	16406.851563
905.279297	16263.548828
904.132813	16478.005859
902.986328	16147.218750
901.839844	16536.009766
900.692383	16325.234375
899.545898	16382.583008
898.398438	16187.183594
897.250000	16466.703125
896.102539	16537.042969
894.954102	16317.787109
893.805664	16431.660156
892.656250	16219.051758
891.507813	16121.849609
890.358398	16411.875000
889.208984	16414.707031
888.058594	16511.029297
886.908203	16155.168945
885.758789	16427.535156
884.607422	16210.907227
883.457031	15979.168945
882.305664	16197.091797
881.154297	16371.489258
880.002930	16066.061523
878.850586	16025.546875
877.698242	16232.408203
876.545898	16317.692383
875.393555	16244.611328
874.240234	16249.623047
873.086914	15990.151367
871.933594	15947.532227
870.780273	16169.291992
869.625977	15992.332031
868.471680	15980.060547
867.317383	16138.861328
866.162109	16100.580078
865.007813	16231.140625
863.852539	16212.329102
862.696289	16284.388672
861.541016	16321.807617
860.384766	15956.986328
859.228516	16206.334961
858.072266	16209.158203
856.915039	16229.266602
855.757813	16372.514648
854.600586	16198.169922
853.442383	15956.957031
852.285156	16123.915039
851.126953	16353.394531
849.968750	16362.644531
848.809570	16296.372070
847.650391	16273.270508
846.491211	16086.274414
845.332031	16123.600586
844.171875	15956.121094
843.012695	16256.386719
841.851563	16185.910156
840.691406	15977.597656
839.530273	16157.042969
838.369141	16129.697266
837.208008	16055.002930
836.046875	16148.214844
834.884766	16234.927734
833.722656	16102.172852
832.560547	16195.306641
831.397461	16180.882813
830.234375	16061.124023
829.071289	16149.901367
827.908203	15918.462891
826.744141	16041.602539
825.580078	15982.118164
824.416016	16156.721680
823.251953	16092.942383
822.086914	16012.018555
820.921875	15941.860352
819.756836	15957.548828
818.590820	15902.446289
817.425781	16192.621094
816.259766	15890.934570
815.092773	15853.028320
813.926758	15800.136719
812.759766	15970.086914
811.592773	16079.982422
810.424805	16168.411133
809.257813	15978.465820
808.089844	16086.139648
806.920898	15911.277344
805.752930	16222.172852
804.583984	15993.878906
803.415039	15973.130859
802.246094	15702.232422
801.076172	15745.686523
799.906250	15883.152344
798.736328	15973.547852
797.566406	15850.286133
796.395508	15842.404297
795.224609	15738.442383
794.053711	16127.641602
792.881836	16119.698242
791.710938	16284.589844
790.538086	16240.346680
789.366211	16503.238281
788.194336	16456.832031
787.021484	16591.644531
785.848633	16568.679688
784.674805	16466.882813
783.500977	16482.300781
782.327148	16408.255859
781.153320	16483.298828
779.979492	16162.335938
778.804688	16254.424805
777.629883	16408.177734
776.454102	16055.538086
775.279297	16058.252930
774.103516	15958.896484
772.927734	16240.128906
771.750977	16087.637695
770.575195	15992.588867
769.398438	16076.039063
768.220703	16142.458008
767.043945	16450.927734
765.866211	16417.445313
764.688477	16679.009766
763.510742	16496.943359
762.332031	16688.357422
761.153320	16684.541016
759.974609	17123.933594
758.794922	17777.255859
757.616211	17947.000000
756.436523	18373.082031
755.255859	19152.785156
754.076172	20048.632813
752.895508	21098.658203
751.714844	22503.894531
750.533203	24228.113281
749.352539	25680.660156
748.170898	27564.156250
746.988281	29123.148438
745.806641	29985.658203
744.624023	30558.109375
743.441406	30868.181641
742.258789	30544.109375
741.075195	30577.253906
739.891602	30563.908203
738.708008	30907.476563
737.523438	31586.597656
736.339844	32480.716797
735.155273	33908.367188
733.969727	34561.003906
732.785156	34947.546875
731.599609	34353.234375
730.414063	33280.562500
729.227539	31706.669922
728.041992	29515.990234
726.855469	27244.140625
725.667969	25251.396484
724.481445	23244.822266
723.293945	21527.634766
722.106445	20486.976563
720.918945	19404.701172
719.730469	18802.666016
718.541992	18163.041016
717.353516	17834.978516
716.164063	17450.292969
714.975586	17044.761719
713.786133	16933.656250
712.595703	16620.880859
711.406250	16434.294922
710.215820	16480.923828
709.025391	16206.261719
707.833984	16185.741211
706.642578	16270.170898
705.451172	16201.380859
704.259766	16203.948242
703.068359	16355.427734
701.875977	16177.623047
700.683594	16435.955078
699.490234	16367.198242
698.297852	16763.664063
697.104492	17105.478516
695.910156	17514.156250
694.716797	17826.322266
693.522461	18186.492188
692.328125	18075.560547
691.132813	18240.896484
689.938477	18234.603516
688.743164	18035.886719
687.547852	17540.318359
686.351563	17461.015625
685.155273	17126.748047
683.958984	17216.837891
682.762695	16903.671875
681.565430	16686.726563
680.368164	16670.353516
679.170898	16568.386719
677.973633	16533.257813
676.775391	16464.757813
675.577148	16496.429688
674.378906	16309.073242
673.179688	16616.029297
671.980469	16197.309570
670.781250	16531.244141
669.581055	16043.965820
668.381836	16319.444336
667.181641	16171.956055
665.980469	16009.958008
664.780273	15898.001953
663.579102	15898.496094
662.377930	16096.686523
661.175781	15924.448242
659.973633	15991.494141
658.771484	15944.131836
657.569336	16090.146484
656.367188	15926.378906
655.164063	16149.218750
653.960938	15991.743164
652.756836	16351.556641
651.552734	16374.777344
650.348633	16661.666016
649.144531	16713.863281
647.939453	16878.097656
646.735352	17166.742188
645.529297	17034.169922
644.324219	17366.193359
643.118164	17239.853516
641.912109	17119.789063
640.706055	17157.281250
639.499023	17132.595703
638.292969	16967.064453
637.084961	16648.357422
635.877930	16679.707031
634.669922	16862.150391
633.461914	16456.765625
632.253906	16529.515625
631.044922	16614.640625
629.836914	16395.718750
628.626953	16396.060547
627.417969	16270.308594
626.208008	16520.742188
624.998047	16496.257813
623.788086	16397.419922
622.577148	16366.779297
621.366211	16375.380859
620.155273	16210.580078
618.944336	16146.978516
617.732422	16264.976563
616.520508	15927.035156
615.308594	15886.226563
614.095703	15882.549805
612.882813	15903.609375
611.669922	15592.851563
610.457031	15583.060547
609.243164	15554.733398
608.029297	15404.908203
606.815430	15629.890625
605.600586	15288.672852
604.385742	15303.654297
603.170898	15382.413086
601.955078	15376.792969
600.740234	15362.948242
599.524414	15316.210938
598.307617	15364.054688
597.091797	15181.693359
595.875000	15469.945313
594.658203	15304.076172
593.440430	15271.777344
592.222656	15237.439453
591.004883	15205.168945
589.787109	15320.680664
588.568359	15204.277344
587.349609	15159.726563
586.130859	14957.274414
584.912109	14986.614258
583.692383	14938.041016
582.472656	14963.271484
581.251953	15142.164063
580.032227	15087.440430
578.811523	15090.085938
577.589844	15096.825195
576.369141	15248.905273
575.147461	15259.695313
573.925781	15335.957031
572.703125	15643.344727
571.481445	15676.530273
570.258789	15830.338867
569.035156	16045.403320
567.812500	16180.659180
566.588867	16483.404297
565.365234	16665.478516
564.140625	16763.730469
562.916992	16788.427734
561.692383	16890.687500
560.466797	16747.984375
559.242188	16637.994141
558.016602	16556.615234
556.791016	16071.445313
555.564453	16155.395508
554.337891	15984.483398
553.111328	15895.174805
551.884766	15732.550781
550.657227	15531.295898
549.429688	15264.958984
548.202148	15263.452148
546.974609	15245.660156
545.746094	15502.635742
544.517578	15106.322266
543.288086	15279.802734
542.058594	15375.915039
540.829102	15120.207031
539.599609	15480.587891
538.370117	15399.761719
537.139648	15516.073242
535.909180	15459.652344
534.677734	15502.777344
533.446289	15470.750000
532.214844	15254.000977
530.983398	15349.910156
529.750977	15202.278320
528.519531	15190.633789
527.286133	15101.923828
526.053711	15145.054688
524.820313	15023.958008
523.586914	15188.692383
522.353516	15081.824219
521.119141	15315.345703
519.884766	15109.252930
518.650391	15174.591797
517.415039	15071.871094
516.179688	14965.149414
514.944336	14959.651367
513.708984	14913.694336
