#Wave		#Intensity
2109.224609	4813.045410
2107.712891	4670.804199
2106.201172	4764.049805
2104.687500	4835.762695
2103.175781	4763.643066
2101.662109	4656.851074
2100.150391	4688.888672
2098.636719	4606.936523
2097.123047	4685.212402
2095.607422	4760.151855
2094.093750	4773.981445
2092.578125	4774.602051
2091.064453	4714.170410
2089.548828	4760.994629
2088.033203	4687.397461
2086.517578	4714.419922
2085.000000	4690.323242
2083.484375	4643.161133
2081.966797	4732.796387
2080.449219	4771.318359
2078.931641	4692.873047
2077.414063	4649.044922
2075.894531	4690.853027
2074.376953	4683.259277
2072.857422	4744.791992
2071.337891	4712.508301
2069.818359	4736.171387
2068.298828	4677.588379
2066.777344	4678.227539
2065.257813	4609.817871
2063.736328	4748.539063
2062.214844	4729.442871
2060.693359	4613.420410
2059.171875	4671.563965
2057.648438	4695.195313
2056.126953	4672.843262
2054.603516	4739.144043
2053.080078	4705.303711
2051.556641	4766.646973
2050.033203	4636.026367
2048.507813	4674.395996
2046.984375	4604.523438
2045.458984	4619.931152
2043.933594	4645.166992
2042.408203	4531.099609
2040.882813	4651.369629
2039.355469	4668.392578
2037.830078	4646.103516
2036.302734	4620.549316
2034.775391	4591.731934
2033.248047	4644.758789
2031.718750	4624.129883
2030.191406	4668.947266
2028.662109	4699.024902
2027.134766	4662.045410
2025.605469	4569.496094
2024.076172	4607.748535
2022.544922	4642.716309
2021.015625	4571.469727
2019.484375	4644.000488
2017.955078	4647.908203
2016.423828	4588.135742
2014.892578	4593.686035
2013.359375	4573.120605
2011.828125	4653.731934
2010.294922	4631.531250
2008.761719	4707.202637
2007.230469	4658.908691
2005.695313	4664.436523
2004.162109	4539.562012
2002.628906	4587.483887
2001.093750	4597.911621
1999.558594	4611.592285
1998.023438	4633.410645
1996.488281	4619.397461
1994.953125	4655.855957
1993.417969	4524.658203
1991.880859	4678.281738
1990.343750	4553.643066
1988.806641	4507.130371
1987.269531	4514.302246
1985.732422	4547.484375
1984.193359	4679.807617
1982.656250	4550.425293
1981.117188	4633.947266
1979.578125	4603.721680
1978.039063	4554.019043
1976.500000	4528.694336
1974.958984	4508.250488
1973.417969	4573.838867
1971.878906	4645.889648
1970.337891	4656.259277
1968.796875	4606.608398
1967.253906	4556.979004
1965.712891	4494.399414
1964.169922	4498.308105
1962.626953	4646.454102
1961.083984	4648.708008
1959.541016	4514.882813
1957.998047	4556.035156
1956.455078	4517.824219
1954.910156	4395.444336
1953.365234	4512.669922
1951.820313	4658.974121
1950.275391	4609.448242
1948.730469	4503.328125
1947.183594	4615.579102
1945.638672	4612.983398
1944.091797	4481.064941
1942.544922	4499.509277
1940.998047	4519.561035
1939.449219	4499.216797
1937.902344	4524.105957
1936.353516	4557.058594
1934.804688	4488.284180
1933.255859	4476.034180
1931.707031	4478.313477
1930.158203	4493.499023
1928.607422	4431.248535
1927.058594	4454.501465
1925.507813	4463.232422
1923.957031	4433.269531
1922.406250	4401.707520
1920.853516	4437.837891
1919.302734	4412.731934
1917.750000	4505.220215
1916.197266	4509.097656
1914.644531	4358.408691
1913.091797	4455.678223
1911.539063	4599.578613
1909.984375	4473.100586
1908.431641	4546.153809
1906.876953	4522.674805
1905.322266	4541.014160
1903.767578	4530.407227
1902.210938	4500.517090
1900.656250	4375.827148
1899.099609	4469.693359
1897.542969	4497.661621
1895.986328	4509.558105
1894.429688	4442.773926
1892.873047	4486.782227
1891.314453	4472.994141
1889.755859	4441.560547
1888.199219	4437.413086
1886.640625	4540.730469
1885.080078	4356.960938
1883.521484	4463.457520
1881.960938	4433.661621
1880.402344	4443.942383
1878.841797	4451.014160
1877.281250	4405.220703
1875.720703	4441.125488
1874.158203	4499.432129
1872.597656	4488.875977
1871.035156	4484.726074
1869.472656	4416.569824
1867.910156	4442.834473
1866.347656	4467.488281
1864.783203	4506.523926
1863.220703	4376.064453
1861.656250	4351.162598
1860.091797	4409.375977
1858.527344	4429.216309
1856.962891	4434.670410
1855.396484	4432.136719
1853.832031	4437.587891
1852.265625	4484.544922
1850.699219	4432.520996
1849.132813	4509.779785
1847.566406	4427.457520
1845.998047	4369.097656
1844.431641	4414.424316
1842.863281	4475.676270
1841.294922	4372.706543
1839.726563	4500.880371
1838.156250	4474.434570
1836.587891	4336.480957
1835.017578	4462.988281
1833.449219	4449.306152
1831.878906	4445.182129
1830.306641	4479.262695
1828.736328	4486.273926
1827.166016	4526.695313
1825.593750	4454.154785
1824.021484	4408.682129
1822.449219	4479.305664
1820.876953	4405.230469
1819.304688	4442.446777
1817.730469	4454.221191
1816.158203	4500.943359
1814.583984	4366.565918
1813.009766	4403.757813
1811.435547	4474.276367
1809.859375	4409.834961
1808.285156	4358.117676
1806.708984	4404.799316
1805.132813	4340.413086
1803.556641	4463.209961
1801.980469	4514.597168
1800.404297	4396.323730
1798.826172	4419.171387
1797.248047	4370.696289
1795.671875	4404.629883
1794.093750	4386.274902
1792.513672	4440.779297
1790.935547	4400.256348
1789.355469	4383.496582
1787.777344	4442.714355
1786.197266	4327.843750
1784.617188	4388.629883
1783.035156	4390.866211
1781.455078	4473.752441
1779.873047	4468.064453
1778.292969	4429.183105
1776.710938	4483.561035
1775.128906	4476.293945
1773.544922	4382.144531
1771.962891	4390.695313
1770.378906	4427.664551
1768.794922	4436.201660
1767.212891	4465.253418
1765.626953	4424.858887
1764.042969	4479.144043
1762.458984	4342.542480
1760.873047	4358.972168
1759.287109	4372.241699
1757.701172	4426.491211
1756.115234	4386.154297
1754.529297	4435.650391
1752.941406	4445.740234
1751.355469	4395.974121
1749.767578	4453.309570
1748.179688	4414.582520
1746.591797	4383.742676
1745.001953	4396.979004
1743.414063	4532.934570
1741.824219	4476.918945
1740.234375	4531.017578
1738.644531	4515.908203
1737.054688	4431.633789
1735.462891	4477.848633
1733.873047	4453.330566
1732.281250	4455.530762
1730.689453	4449.875977
1729.097656	4452.075684
1727.505859	4476.254883
1725.912109	4501.993164
1724.320313	4442.972656
1722.726563	4468.707031
1721.132813	4533.647949
1719.539063	4521.709961
1717.945313	4473.710938
1716.349609	4383.402832
1714.755859	4462.412598
1713.160156	4516.315918
1711.564453	4474.624512
1709.968750	4606.822266
1708.371094	4608.979004
1706.775391	4509.360840
1705.177734	4632.073730
1703.580078	4512.146484
1701.982422	4545.615234
1700.384766	4636.953613
1698.787109	4559.330566
1697.187500	4559.928711
1695.587891	4707.488281
1693.990234	4581.442871
1692.390625	4696.117188
1690.789063	4626.374512
1689.189453	4676.943848
1687.587891	4585.369629
1685.988281	4701.505859
1684.386719	4725.486816
1682.785156	4565.285156
1681.181641	4715.681152
1679.580078	4713.120605
1677.976563	4671.566895
1676.373047	4776.619141
1674.769531	4677.380859
1673.166016	4701.329590
1671.562500	4669.162598
1669.957031	4691.543945
1668.353516	4774.669922
1666.748047	4812.593750
1665.142578	4788.214844
1663.537109	4829.232422
1661.929688	4762.834961
1660.324219	4895.652832
1658.716797	4913.283203
1657.109375	4968.237793
1655.501953	5004.506348
1653.894531	4991.004883
1652.285156	5178.039063
1650.677734	5208.022461
1649.068359	5267.515625
1647.458984	5255.521973
1645.849609	5327.404297
1644.240234	5363.540527
1642.628906	5281.669434
1641.019531	5345.738770
1639.408203	5457.887695
1637.796875	5611.879883
1636.185547	5644.812988
1634.572266	5514.890137
1632.960938	5625.355957
1631.347656	5658.264160
1629.734375	5694.257324
1628.121094	5745.729980
1626.507813	5916.470703
1624.894531	5970.971680
1623.279297	5867.495605
1621.664063	5918.886230
1620.048828	6138.975586
1618.433594	6160.882324
1616.818359	5973.900879
1615.203125	6043.786621
1613.585938	6113.641602
1611.968750	6191.198242
1610.351563	6090.939453
1608.734375	6123.644531
1607.117188	6136.247070
1605.498047	6184.376465
1603.878906	6354.509277
1602.261719	6350.065918
1600.640625	6490.754883
1599.021484	6543.396973
1597.402344	6412.365234
1595.781250	6475.801270
1594.162109	6438.938965
1592.541016	6295.673340
1590.919922	6394.557617
1589.296875	6282.194336
1587.675781	6260.815918
1586.052734	6182.429688
1584.429688	6225.788574
1582.806641	6312.257324
1581.183594	6397.148926
1579.560547	6314.179688
1577.935547	6400.572754
1576.312500	6348.417480
1574.687500	6396.298340
1573.062500	6507.230469
1571.435547	6345.884766
1569.810547	6484.458008
1568.183594	6410.814941
1566.558594	6300.313965
1564.931641	6328.163574
1563.304688	6366.755371
1561.675781	6389.969727
1560.048828	6434.673340
1558.419922	6453.256348
1556.791016	6567.004395
1555.162109	6585.549805
1553.533203	6757.526855
1551.904297	6826.646973
1550.273438	6789.908203
1548.642578	6748.584473
1547.011719	6765.535156
1545.380859	6756.421387
1543.750000	6506.718262
1542.119141	6355.176758
1540.486328	6405.894531
1538.853516	6104.356445
1537.220703	6152.042480
1535.587891	6020.605469
1533.955078	5962.686035
1532.320313	6108.299316
1530.685547	5954.007324
1529.052734	5975.671387
1527.416016	6050.845703
1525.781250	6070.949707
1524.146484	5907.625000
1522.509766	5834.532227
1520.873047	5850.084473
1519.236328	5679.273926
1517.599609	5830.770996
1515.962891	5715.003418
1514.324219	5866.426758
1512.687500	5758.331543
1511.048828	5718.946289
1509.410156	5629.234863
1507.771484	5644.800781
1506.130859	5759.476563
1504.492188	5656.091797
1502.851563	5618.292480
1501.210938	5690.229980
1499.570313	5603.684570
1497.927734	5690.825195
1496.287109	5755.084473
1494.644531	5692.940918
1493.001953	5684.102539
1491.359375	5716.359375
1489.716797	5792.728516
1488.074219	5773.224121
1486.429688	5629.010254
1484.785156	5802.666504
1483.140625	5771.008789
1481.496094	5804.722168
1479.851563	5707.732422
1478.207031	5768.791992
1476.560547	5656.661133
1474.914063	5754.151367
1473.267578	5648.144531
1471.621094	5797.205078
1469.972656	5624.456543
1468.326172	5614.136719
1466.677734	5646.297363
1465.029297	5746.693848
1463.380859	5727.254883
1461.732422	5674.471191
1460.082031	5726.292969
1458.431641	5731.115234
1456.783203	5738.964844
1455.132813	5792.252441
1453.480469	5688.020020
1451.830078	5651.964844
1450.177734	5661.336914
1448.527344	5643.462891
1446.875000	5621.057129
1445.220703	5560.841797
1443.568359	5482.503418
1441.916016	5473.754395
1440.261719	5371.279297
1438.607422	5424.525879
1436.953125	5442.993164
1435.298828	5473.538574
1433.642578	5368.129883
1431.988281	5350.353027
1430.332031	5255.584473
1428.675781	5156.327637
1427.019531	5325.740234
1425.361328	5226.510742
1423.705078	5201.239258
1422.046875	5274.008301
1420.388672	5250.244629
1418.730469	5227.998047
1417.072266	5238.918457
1415.412109	5245.312988
1413.753906	5165.833008
1412.093750	5072.831543
1410.433594	5059.680664
1408.773438	5157.943848
1407.111328	5180.904297
1405.451172	5255.019531
1403.789063	5453.979492
1402.126953	5386.605469
1400.464844	5576.425293
1398.802734	5630.841797
1397.138672	5742.356934
1395.474609	5792.203125
1393.812500	5721.821289
1392.146484	5580.863770
1390.482422	5659.248047
1388.818359	5521.367676
1387.152344	5635.759766
1385.486328	5661.546387
1383.820313	5646.804199
1382.154297	5870.613281
1380.488281	6001.326660
1378.820313	6019.510742
1377.154297	6271.576660
1375.486328	6292.689941
1373.818359	6333.276367
1372.148438	6397.816895
1370.480469	6261.598145
1368.810547	6164.377441
1367.140625	6239.392578
1365.470703	6244.014648
1363.800781	6043.589355
1362.130859	5894.126953
1360.458984	5815.042480
1358.787109	5900.518555
1357.115234	5825.952637
1355.443359	5878.497070
1353.771484	5848.808594
1352.097656	5980.525879
1350.423828	6158.500977
1348.751953	6281.129395
1347.076172	6566.483887
1345.402344	6975.637695
1343.728516	7163.685059
1342.052734	7405.375977
1340.376953	7818.550293
1338.701172	8027.170898
1337.025391	8258.071289
1335.347656	8391.946289
1333.671875	8509.364258
1331.994141	8471.721680
1330.316406	8551.815430
1328.638672	8493.322266
1326.960938	8518.263672
1325.281250	8324.290039
1323.601563	8082.758789
1321.921875	8075.025391
1320.242188	7748.828613
1318.562500	7601.314453
1316.880859	7331.889648
1315.201172	7193.454102
1313.519531	7025.341797
1311.837891	6873.654785
1310.154297	6723.519531
1308.472656	6673.003418
1306.789063	6567.543457
1305.105469	6497.774902
1303.421875	6205.304199
1301.738281	6101.500488
1300.054688	5917.593750
1298.369141	5852.479004
1296.683594	5690.960938
1294.998047	5539.895996
1293.312500	5500.115723
1291.626953	5380.293457
1289.939453	5310.919922
1288.253906	5152.660645
1286.566406	5163.373535
1284.878906	5107.423828
1283.189453	5088.521973
1281.501953	5045.937988
1279.812500	5049.261719
1278.123047	5230.178223
1276.433594	5199.426758
1274.744141	5198.274902
1273.052734	5216.349121
1271.363281	5265.466797
1269.671875	5316.040527
1267.980469	5235.049316
1266.289063	5198.424316
1264.595703	5222.385254
1262.904297	5091.249512
1261.210938	4892.243652
1259.517578	4935.447754
1257.824219	4959.444336
1256.128906	4701.570801
1254.435547	4781.671387
1252.740234	4802.734375
1251.044922	4645.346680
1249.349609	4750.469727
1247.652344	4815.745605
1245.957031	4710.039063
1244.259766	4710.464355
1242.562500	4855.250488
1240.865234	4580.238770
1239.167969	4702.901855
1237.468750	4572.310547
1235.769531	4665.484375
1234.072266	4685.044922
1232.371094	4656.049316
1230.671875	4569.706055
1228.972656	4567.216797
1227.271484	4552.966797
1225.570313	4409.380859
1223.869141	4453.950684
1222.167969	4454.425293
1220.464844	4359.427246
1218.763672	4409.850098
1217.060547	4486.677246
1215.357422	4488.610840
1213.654297	4431.842773
1211.949219	4344.289063
1210.246094	4434.261719
1208.541016	4512.461914
1206.835938	4562.769043
1205.130859	4516.306641
1203.423828	4433.226074
1201.718750	4490.841797
1200.011719	4444.425293
1198.304688	4371.666992
1196.597656	4405.829102
1194.888672	4390.203125
1193.181641	4460.933594
1191.472656	4417.499512
1189.763672	4359.456055
1188.054688	4323.376465
1186.343750	4296.085938
1184.634766	4270.269531
1182.923828	4292.696289
1181.212891	4316.574219
1179.501953	4260.089355
1177.791016	4332.163086
1176.078125	4245.033203
1174.365234	4171.082031
1172.652344	4212.473633
1170.939453	4283.032227
1169.226563	4290.822754
1167.511719	4343.827148
1165.798828	4399.724121
1164.083984	4193.158691
1162.369141	4161.604004
1160.652344	4293.283691
1158.937500	4242.779297
1157.220703	4186.470215
1155.503906	4224.848145
1153.787109	4234.088379
1152.070313	4096.299316
1150.351563	4060.447510
1148.632813	4165.749023
1146.916016	4212.814453
1145.195313	4150.780273
1143.476563	4109.130371
1141.757813	4255.028320
1140.037109	4256.974609
1138.316406	4216.780273
1136.595703	4204.206055
1134.875000	4178.565430
1133.152344	4206.662598
1131.429688	4108.444824
1129.708984	4133.641602
1127.984375	4190.750488
1126.261719	4073.741455
1124.539063	4088.774414
1122.814453	3926.887451
1121.089844	4005.736328
1119.365234	3955.548096
1117.640625	3916.975342
1115.914063	3959.551758
1114.187500	3887.679932
1112.462891	3752.122070
1110.734375	3893.156982
1109.007813	3942.936035
1107.281250	3894.285889
1105.552734	3902.083496
1103.824219	3757.995117
1102.095703	3706.526367
1100.367188	3756.289307
1098.636719	3797.356445
1096.908203	3842.739746
1095.177734	3810.080078
1093.447266	3855.439209
1091.714844	3798.239502
1089.984375	3800.263672
1088.251953	3857.141357
1086.519531	3827.399902
1084.787109	3777.471191
1083.054688	3727.564941
1081.320313	3728.158936
1079.585938	3747.496826
1077.851563	3877.826660
1076.117188	3793.351318
1074.382813	3953.869629
1072.648438	3880.939697
1070.912109	3950.627686
1069.175781	4118.199219
1067.439453	4167.645996
1065.701172	3946.487061
1063.964844	4099.553711
1062.226563	3930.300293
1060.488281	3861.803955
1058.750000	3940.010254
1057.011719	3776.658447
1055.271484	3762.860107
1053.531250	3739.009033
1051.791016	3778.380859
1050.050781	3725.810059
1048.310547	3733.574463
1046.568359	3821.731689
1044.826172	3764.879883
1043.083984	3728.143555
1041.341797	3698.597168
1039.599609	3674.801270
1037.855469	3757.133301
1036.113281	3724.731934
1034.369141	3788.380371
1032.623047	3688.633301
1030.878906	3783.779541
1029.132813	3824.451416
1027.386719	3847.919678
1025.640625	3839.879150
1023.894531	3851.881104
1022.148438	3875.325684
1020.400391	3913.066650
1018.652344	3913.599121
1016.904297	3905.550537
1015.156250	4003.307129
1013.406250	3925.198975
1011.658203	3864.275391
1009.908203	3926.253418
1008.158203	3918.209229
1006.408203	3973.005127
1004.656250	3946.391846
1002.904297	3996.872803
1001.152344	3954.566895
999.400391	3909.426514
997.648438	3899.968262
995.896484	3906.201660
994.142578	3853.973145
992.388672	3979.954102
990.634766	3893.528320
988.878906	4026.565430
987.125000	3964.384277
985.369141	3954.925781
983.613281	4040.868652
981.857422	3933.173584
980.099609	3906.649170
978.343750	3928.514160
976.585938	3929.030273
974.828125	3817.192139
973.070313	3839.061035
971.310547	3789.842529
969.552734	3722.170166
967.792969	3741.203125
966.033203	3818.469971
964.273438	3861.614990
962.511719	3869.242188
960.750000	3893.900146
958.990234	3857.518799
957.226563	3984.329834
955.464844	3929.501709
953.703125	3876.116943
951.939453	3892.235352
950.175781	3793.519775
948.412109	3692.014893
946.648438	3675.573486
944.882813	3669.055908
943.117188	3641.296387
941.351563	3731.074951
939.585938	3711.807129
937.820313	3749.160156
936.052734	3755.365967
934.285156	3716.299561
932.517578	3624.920898
930.750000	3577.417969
928.982422	3602.034180
927.212891	3541.837891
925.443359	3440.691895
923.673828	3593.875977
921.904297	3584.567383
920.132813	3482.068604
918.361328	3532.081055
916.591797	3436.698242
914.818359	3483.875244
913.046875	3483.065430
911.275391	3397.632324
909.501953	3391.202148
907.728516	3420.017822
905.955078	3479.826660
904.179688	3440.971924
902.406250	3497.929932
900.630859	3418.244141
898.855469	3534.320313
897.080078	3557.429443
895.302734	3517.192627
893.525391	3486.823975
891.750000	3536.655762
889.970703	3441.598877
888.193359	3563.129883
886.416016	3444.212158
884.636719	3434.976074
882.857422	3453.846924
881.078125	3374.371582
879.296875	3410.101074
877.517578	3313.822266
875.736328	3383.240479
873.955078	3287.012207
872.173828	3356.403809
870.390625	3386.482666
868.609375	3431.974854
866.826172	3418.553223
865.042969	3335.044189
863.259766	3334.264893
861.474609	3315.269531
859.689453	3266.864258
857.904297	3365.540039
856.119141	3230.330811
854.333984	3200.177002
852.546875	3228.819336
850.761719	3250.451660
848.974609	3213.318848
847.185547	3183.196289
845.398438	3218.805664
843.609375	3183.103516
841.822266	3256.431152
840.031250	3251.476318
838.242188	3197.630127
836.453125	3234.589844
834.662109	3137.486816
832.871094	3092.080078
831.080078	3179.280518
829.289063	3179.930176
827.496094	3112.224854
825.703125	3157.518555
823.910156	3162.354736
822.117188	3174.158691
820.324219	3151.114502
818.529297	3154.554932
816.734375	3137.097656
814.939453	3105.721436
813.144531	3173.218262
811.347656	3201.705566
809.550781	3185.644287
807.755859	3248.899414
805.957031	3185.537842
804.160156	3223.729492
802.361328	3138.156250
800.564453	3133.248047
798.765625	3174.203613
796.964844	3081.754395
795.166016	3074.083740
793.365234	3199.738770
791.564453	3130.951660
789.763672	3181.574951
787.962891	3190.540283
786.160156	3195.338623
784.359375	3151.584717
782.556641	3106.464111
780.751953	3015.610352
778.949219	3027.375244
777.144531	3101.496582
775.339844	3052.272705
773.535156	3174.833984
771.730469	3182.394531
769.925781	3135.954346
768.119141	3165.666992
766.312500	3056.978027
764.505859	3081.160400
762.697266	3184.174805
760.890625	3182.040283
759.082031	3135.664307
757.273438	3199.889160
755.464844	3240.591064
753.654297	3252.259766
751.845703	3384.092773
750.035156	3399.864258
748.224609	3469.471924
746.412109	3688.116943
744.601563	3909.418457
742.789063	4247.883301
740.976563	4755.842285
739.164063	5827.562500
737.349609	7519.169434
735.537109	9400.183594
733.722656	10650.561523
731.908203	10959.396484
730.091797	10035.356445
728.277344	8403.964844
726.460938	6751.316406
724.644531	5614.212891
722.828125	4573.970215
721.009766	4047.362549
719.193359	3735.565186
717.375000	3547.671387
715.556641	3363.990234
713.736328	3331.581543
711.917969	3186.512695
710.097656	3211.858887
708.277344	3186.375488
706.457031	3213.082275
704.636719	3216.438721
702.814453	3179.991943
700.992188	3146.306396
699.169922	3129.098145
697.347656	3135.213135
695.523438	3149.552002
693.699219	3106.308838
691.875000	3202.877441
690.050781	3300.770264
688.226563	3387.657715
686.400391	3407.396240
684.574219	3390.156494
682.748047	3288.054199
680.921875	3210.633789
679.095703	3153.773682
677.267578	3174.910889
675.439453	3066.117432
673.611328	3102.304688
671.781250	3102.934326
669.953125	3032.499756
668.123047	3115.122070
666.292969	3147.164307
664.460938	3150.512695
662.630859	3118.361328
660.798828	3120.349609
658.966797	3107.325439
657.134766	3217.097168
655.302734	3253.159912
653.468750	3264.658936
651.634766	3251.611816
649.800781	3263.104980
647.966797	3308.660400
646.130859	3309.235107
644.294922	3308.447266
642.458984	3208.252686
640.623047	3414.423340
638.787109	3345.555664
636.949219	3324.347168
635.111328	3288.183838
633.273438	3269.718994
631.435547	3377.723145
629.595703	3296.709717
627.757813	3302.719727
625.917969	3338.620605
624.076172	3307.937744
622.236328	3225.658936
620.394531	3260.193848
618.552734	3125.021484
616.710938	3099.846680
614.869141	3038.047852
613.025391	2976.278320
611.183594	2975.568359
609.339844	2951.808105
607.494141	3022.949707
605.650391	2991.057617
603.804688	2926.661865
601.958984	2904.289551
600.113281	2864.322021
598.267578	2911.027100
596.419922	2903.563965
594.572266	2855.504639
592.724609	2902.177734
590.876953	2928.538086
589.027344	2923.781738
587.179688	2929.843750
585.330078	2939.957520
583.480469	2802.765869
581.628906	2818.309082
579.779297	2820.337158
577.927734	2926.345947
576.076172	2851.391846
574.222656	2939.795166
572.371094	3007.914307
570.517578	2946.484863
568.664063	2933.641602
566.810547	2999.015625
564.955078	2952.461426
563.101563	2942.320801
561.246094	2968.567627
559.390625	2940.914063
557.533203	2932.129639
555.677734	2874.873779
553.820313	2840.530518
551.962891	2861.385742
550.105469	2831.098633
548.246094	2873.469727
546.386719	2870.092529
544.527344	2818.310547
542.667969	2804.193359
540.808594	2812.930176
538.947266	2755.823975
537.085938	2784.717773
535.224609	2871.346680
533.363281	2819.637695
531.500000	2839.098389
529.638672	2701.530518
527.775391	2757.236084
525.910156	2863.888184
524.046875	2983.899658
522.181641	3471.221191
520.316406	4145.970215
518.451172	3905.096924
516.585938	3277.137939
514.718750	2928.090088
512.851563	2801.508545
510.984375	2783.432861
509.117188	2867.092773
507.250000	2796.820068
505.380859	2829.597168
503.511719	2810.193848
501.642578	2760.043213
499.771484	2759.382080
497.902344	2697.238037
496.031250	2687.238037
494.160156	2638.500244
492.287109	2675.265869
490.416016	2683.972168
488.542969	2643.279541
486.669922	2665.335693
484.796875	2608.654297
482.921875	2616.033691
481.046875	2638.079834
479.171875	2673.449463
477.296875	2608.821289
475.421875	2625.521973
473.544922	2571.595703
471.667969	2528.351807
469.791016	2574.358643
467.914063	2588.387939
466.035156	2550.495361
464.156250	2615.095215
462.277344	2527.984863
460.398438	2535.360107
458.519531	2571.989258
456.638672	2596.634521
454.757813	2586.707520
452.876953	2607.350342
450.994141	2573.510254
449.113281	2506.479248
447.230469	2543.061523
445.347656	2490.673584
443.462891	2511.313965
441.580078	2522.655273
439.695313	2588.385498
437.810547	2534.709961
435.925781	2459.843018
434.039063	2452.624756
432.152344	2534.213379
430.267578	2537.581299
428.378906	2469.408691
426.492188	2466.167969
424.603516	2476.170166
422.714844	2536.473145
420.826172	2472.336182
418.937500	2515.409424
417.046875	2477.765869
415.158203	2560.493652
413.265625	2503.023193
411.375000	2542.081543
409.484375	2524.291260
407.591797	2540.863037
405.699219	2503.266602
403.806641	2519.835449
401.912109	2437.369873
400.019531	2436.785645
