#Wave		#Intensity
1585.210938	21299.923828
1584.209961	21644.599609
1583.208984	21420.367188
1582.208008	21553.242188
1581.206055	21576.234375
1580.204102	21427.021484
1579.202148	21232.957031
1578.200195	21283.439453
1577.198242	21174.281250
1576.195313	21426.726563
1575.192383	21232.820313
1574.189453	21235.900391
1573.186523	21189.138672
1572.182617	20972.976563
1571.178711	20667.230469
1570.174805	20635.556641
1569.170898	20710.958984
1568.166992	20846.076172
1567.162109	20640.160156
1566.158203	20653.304688
1565.153320	20900.298828
1564.147461	20652.212891
1563.142578	20695.185547
1562.136719	21004.171875
1561.130859	20915.306641
1560.125000	20776.771484
1559.119141	20722.775391
1558.113281	21061.308594
1557.106445	21417.085938
1556.099609	21708.152344
1555.092773	21485.181641
1554.084961	21798.451172
1553.078125	21992.470703
1552.070313	22208.738281
1551.062500	22707.708984
1550.054688	22794.771484
1549.045898	23407.472656
1548.038086	24027.357422
1547.029297	24547.841797
1546.020508	24919.425781
1545.011719	25637.710938
1544.001953	26117.904297
1542.992188	26882.695313
1541.982422	27097.496094
1540.972656	27579.558594
1539.962891	28177.746094
1538.952148	28345.125000
1537.942383	28415.949219
1536.931641	28716.775391
1535.919922	28891.353516
1534.909180	28482.365234
1533.897461	28204.558594
1532.886719	27538.853516
1531.874023	27209.464844
1530.862305	26502.244141
1529.850586	26252.238281
1528.837891	25491.179688
1527.825195	25142.732422
1526.812500	24327.912109
1525.799805	23861.392578
1524.786133	23478.953125
1523.772461	23345.816406
1522.758789	22564.101563
1521.745117	21957.779297
1520.731445	22283.578125
1519.716797	21884.601563
1518.702148	21695.251953
1517.687500	21675.976563
1516.672852	21715.826172
1515.657227	21504.460938
1514.642578	21763.462891
1513.626953	21840.191406
1512.610352	21646.156250
1511.594727	21786.853516
1510.579102	21580.607422
1509.562500	21541.703125
1508.545898	21638.066406
1507.529297	21478.689453
1506.511719	21791.339844
1505.494141	21926.910156
1504.477539	21723.341797
1503.458984	21654.970703
1502.441406	21758.552734
1501.423828	21646.000000
1500.405273	21879.658203
1499.386719	21683.667969
1498.368164	21728.257813
1497.348633	21763.011719
1496.330078	21802.658203
1495.310547	21606.841797
1494.291016	21568.037109
1493.271484	21700.853516
1492.250977	21799.298828
1491.231445	22047.183594
1490.210938	21912.763672
1489.190430	21932.716797
1488.168945	22121.640625
1487.148438	21845.275391
1486.126953	22176.119141
1485.105469	21936.566406
1484.083984	22125.328125
1483.061523	22132.974609
1482.040039	22265.357422
1481.017578	22578.648438
1479.995117	22740.220703
1478.971680	22816.171875
1477.949219	23058.277344
1476.925781	23420.005859
1475.902344	23671.652344
1474.878906	23940.291016
1473.855469	24125.792969
1472.831055	24594.416016
1471.806641	24913.951172
1470.782227	25389.535156
1469.757813	26043.029297
1468.733398	26574.285156
1467.708008	27297.986328
1466.682617	27528.841797
1465.657227	28252.042969
1464.631836	29038.312500
1463.605469	29590.318359
1462.579102	30685.392578
1461.552734	31524.251953
1460.526367	32657.431641
1459.500000	33739.007813
1458.472656	34189.652344
1457.445313	35124.433594
1456.417969	35250.972656
1455.390625	35803.191406
1454.362305	35221.742188
1453.334961	35508.675781
1452.306641	35012.617188
1451.277344	34200.765625
1450.249023	33919.046875
1449.219727	32864.781250
1448.191406	31463.568359
1447.162109	30886.279297
1446.131836	29719.167969
1445.102539	28989.531250
1444.072266	28318.449219
1443.041992	27451.080078
1442.011719	26654.427734
1440.981445	26071.570313
1439.950195	25651.441406
1438.918945	25185.416016
1437.887695	24845.642578
1436.856445	24430.873047
1435.825195	24496.068359
1434.792969	24219.634766
1433.760742	23894.871094
1432.728516	23710.699219
1431.696289	23587.130859
1430.663086	23078.724609
1429.629883	23374.027344
1428.596680	22965.082031
1427.563477	22701.455078
1426.530273	22527.425781
1425.496094	22256.742188
1424.461914	22070.787109
1423.427734	21877.658203
1422.393555	21974.605469
1421.358398	21542.373047
1420.323242	21455.759766
1419.288086	21258.082031
1418.252930	21193.291016
1417.217773	21319.242188
1416.181641	21141.023438
1415.145508	21196.949219
1414.109375	21337.294922
1413.073242	21446.220703
1412.036133	21620.214844
1411.000000	21656.701172
1409.962891	21840.218750
1408.924805	22108.013672
1407.887695	22064.853516
1406.849609	22749.263672
1405.812500	22954.072266
1404.773438	23690.986328
1403.735352	23974.962891
1402.697266	24179.384766
1401.658203	24653.257813
1400.619141	24900.759766
1399.580078	25150.562500
1398.540039	25316.080078
1397.500977	25616.185547
1396.460938	25399.283203
1395.420898	25293.035156
1394.380859	25340.626953
1393.339844	25025.406250
1392.298828	24895.277344
1391.257813	24930.910156
1390.216797	25091.382813
1389.175781	24862.892578
1388.133789	25131.312500
1387.091797	24770.927734
1386.049805	24883.312500
1385.007813	25451.378906
1383.964844	25386.113281
1382.922852	25985.003906
1381.879883	25929.238281
1380.835938	26487.019531
1379.792969	26907.988281
1378.749023	27319.199219
1377.706055	27176.972656
1376.661133	27475.404297
1375.617188	27591.761719
1374.573242	27715.248047
1373.528320	28144.996094
1372.483398	28275.490234
1371.438477	28310.244141
1370.392578	28215.835938
1369.347656	28042.560547
1368.301758	28541.107422
1367.255859	28162.287109
1366.208984	28283.042969
1365.163086	28377.466797
1364.116211	28381.083984
1363.069336	28504.101563
1362.022461	28631.841797
1360.974609	28525.591797
1359.927734	28550.646484
1358.879883	28859.632813
1357.832031	28741.466797
1356.783203	29024.044922
1355.735352	29189.656250
1354.686523	29555.458984
1353.637695	29699.433594
1352.588867	30355.708984
1351.539063	30701.970703
1350.490234	31295.824219
1349.440430	32099.003906
1348.390625	32763.742188
1347.339844	33809.093750
1346.290039	34508.890625
1345.239258	34918.085938
1344.188477	35660.175781
1343.137695	36528.019531
1342.085938	36936.523438
1341.034180	37371.007813
1339.982422	38102.445313
1338.930664	38512.730469
1337.878906	39039.269531
1336.826172	39237.753906
1335.773438	39505.027344
1334.720703	39750.816406
1333.667969	39630.886719
1332.614258	39945.375000
1331.561523	39483.726563
1330.507813	39330.703125
1329.453125	38992.718750
1328.399414	38443.796875
1327.344727	38030.261719
1326.290039	37571.851563
1325.235352	37014.089844
1324.180664	36515.796875
1323.125000	36256.996094
1322.070313	36481.496094
1321.014648	35633.140625
1319.958008	36103.906250
1318.902344	35658.394531
1317.845703	35577.527344
1316.789063	34933.554688
1315.732422	34516.949219
1314.675781	33927.859375
1313.618164	33506.906250
1312.560547	32601.480469
1311.502930	32072.251953
1310.445313	31176.957031
1309.386719	30374.179688
1308.329102	29446.542969
1307.270508	28684.611328
1306.210938	28293.701172
1305.152344	27640.919922
1304.092773	26570.662109
1303.033203	26440.000000
1301.973633	25868.226563
1300.914063	25556.146484
1299.853516	25161.660156
1298.792969	25168.142578
1297.732422	24625.398438
1296.671875	24832.304688
1295.611328	24577.308594
1294.549805	24228.193359
1293.488281	24223.080078
1292.426758	23984.853516
1291.364258	24019.810547
1290.302734	24082.998047
1289.240234	24052.027344
1288.177734	23696.394531
1287.114258	23999.527344
1286.051758	23766.341797
1284.988281	23815.398438
1283.924805	23269.701172
1282.861328	23746.578125
1281.796875	23922.486328
1280.732422	23449.933594
1279.667969	23642.269531
1278.603516	23691.277344
1277.539063	23977.386719
1276.473633	23796.271484
1275.408203	23993.056641
1274.342773	24088.867188
1273.277344	24294.886719
1272.210938	24219.386719
1271.145508	24108.746094
1270.079102	24068.476563
1269.011719	24260.255859
1267.945313	24180.132813
1266.877930	23961.820313
1265.810547	24012.957031
1264.743164	23614.451172
1263.674805	23319.128906
1262.607422	22939.660156
1261.539063	22546.310547
1260.470703	22805.925781
1259.401367	22333.230469
1258.333008	22040.822266
1257.263672	21806.994141
1256.194336	21750.935547
1255.125000	21573.359375
1254.054688	21547.750000
1252.985352	20928.724609
1251.915039	20812.162109
1250.843750	20982.892578
1249.773438	20955.087891
1248.702148	20432.416016
1247.630859	20404.738281
1246.559570	20300.068359
1245.488281	19908.501953
1244.416016	20174.824219
1243.343750	20051.611328
1242.271484	20091.644531
1241.199219	19782.029297
1240.125977	19668.294922
1239.053711	19957.675781
1237.980469	19876.560547
1236.906250	19779.175781
1235.833008	19819.207031
1234.758789	19838.267578
1233.684570	19780.513672
1232.610352	19920.570313
1231.536133	19820.947266
1230.460938	20028.382813
1229.385742	20038.068359
1228.310547	20270.941406
1227.235352	19813.359375
1226.159180	19969.488281
1225.083008	19928.056641
1224.006836	19856.443359
1222.930664	19977.621094
1221.853516	20156.794922
1220.777344	20447.320313
1219.700195	20347.798828
1218.622070	20348.099609
1217.544922	20522.394531
1216.466797	20520.333984
1215.388672	20824.376953
1214.310547	20794.427734
1213.232422	21411.205078
1212.153320	21404.314453
1211.074219	21571.201172
1209.995117	21647.669922
1208.916016	21907.068359
1207.835938	22122.359375
1206.755859	21652.312500
1205.675781	21934.683594
1204.595703	21818.921875
1203.514648	21818.882813
1202.434570	21684.685547
1201.353516	21562.107422
1200.271484	21643.039063
1199.190430	21580.617188
1198.108398	21430.402344
1197.026367	21150.857422
1195.944336	21116.298828
1194.862305	21012.464844
1193.779297	20689.312500
1192.696289	20357.060547
1191.613281	20140.355469
1190.530273	19896.050781
1189.446289	19905.628906
1188.362305	19855.228516
1187.278320	19477.382813
1186.194336	19369.453125
1185.109375	19245.431641
1184.024414	18980.880859
1182.939453	19057.453125
1181.854492	19196.189453
1180.768555	18989.392578
1179.683594	18911.630859
1178.597656	18928.289063
1177.510742	18572.072266
1176.424805	18701.548828
1175.337891	18478.968750
1174.250977	18608.408203
1173.164063	18450.330078
1172.077148	18515.339844
1170.989258	18479.179688
1169.901367	18472.908203
1168.813477	18370.132813
1167.724609	18517.798828
1166.636719	18479.363281
1165.547852	18420.277344
1164.458984	18599.972656
1163.369141	18577.607422
1162.280273	18692.933594
1161.190430	18569.607422
1160.100586	18909.671875
1159.010742	18942.291016
1157.919922	19128.509766
1156.829102	19236.708984
1155.738281	19131.724609
1154.647461	19171.134766
1153.555664	19400.662109
1152.464844	19066.677734
1151.373047	19424.353516
1150.280273	19204.968750
1149.188477	19155.048828
1148.095703	19139.474609
1147.002930	18922.576172
1145.910156	18849.873047
1144.817383	18960.144531
1143.723633	18631.390625
1142.629883	18414.781250
1141.536133	18566.208984
1140.441406	18347.419922
1139.347656	18663.267578
1138.252930	18549.607422
1137.158203	18267.025391
1136.062500	18073.595703
1134.967773	18033.169922
1133.872070	18246.048828
1132.776367	18137.158203
1131.679688	18311.144531
1130.583984	18131.589844
1129.487305	18061.548828
1128.390625	18053.078125
1127.292969	18097.027344
1126.196289	17913.111328
1125.098633	18080.078125
1124.000977	18082.994141
1122.903320	18115.505859
1121.804688	18009.138672
1120.706055	18096.275391
1119.607422	18062.771484
1118.508789	17758.554688
1117.409180	17902.546875
1116.310547	17980.527344
1115.210938	17885.685547
1114.110352	17904.535156
1113.010742	17625.673828
1111.910156	17674.103516
1110.809570	17670.267578
1109.708984	17509.728516
1108.607422	17587.664063
1107.506836	17813.119141
1106.405273	17582.292969
1105.303711	17503.593750
1104.201172	17477.103516
1103.098633	17536.808594
1101.996094	17469.503906
1100.893555	17311.542969
1099.791016	17180.847656
1098.687500	17161.246094
1097.583984	17148.449219
1096.480469	17434.654297
1095.376953	17238.365234
1094.272461	17479.138672
1093.167969	17629.259766
1092.063477	17457.947266
1090.958008	17689.460938
1089.853516	17506.896484
1088.748047	17622.949219
1087.642578	18197.970703
1086.536133	18182.699219
1085.430664	18646.595703
1084.324219	18653.828125
1083.217773	19173.894531
1082.110352	19497.226563
1081.003906	19328.121094
1079.896484	19619.666016
1078.789063	19913.337891
1077.680664	20312.947266
1076.573242	20281.437500
1075.464844	20222.869141
1074.356445	20238.750000
1073.247070	20220.798828
1072.138672	20227.652344
1071.029297	19986.583984
1069.919922	19813.216797
1068.809570	19556.572266
1067.700195	19417.156250
1066.589844	19014.337891
1065.479492	18960.648438
1064.368164	18866.466797
1063.257813	18873.589844
1062.146484	18363.244141
1061.035156	18141.035156
1059.922852	18166.298828
1058.811523	17872.281250
1057.699219	17621.099609
1056.586914	17904.904297
1055.473633	17757.179688
1054.361328	17551.111328
1053.248047	17322.673828
1052.134766	17381.748047
1051.021484	17214.056641
1049.907227	17181.103516
1048.792969	17065.138672
1047.678711	17000.820313
1046.564453	17275.214844
1045.449219	17148.087891
1044.333984	17236.244141
1043.218750	17429.710938
1042.103516	16892.527344
1040.987305	17032.208984
1039.871094	17017.267578
1038.754883	16883.636719
1037.638672	16978.443359
1036.521484	17259.001953
1035.404297	17226.113281
1034.287109	16942.632813
1033.169922	17039.574219
1032.051758	17053.718750
1030.933594	17074.562500
1029.815430	17195.998047
1028.697266	17172.095703
1027.578125	17335.910156
1026.458984	17287.412109
1025.339844	17350.611328
1024.220703	17382.519531
1023.100586	17202.314453
1021.980469	17372.628906
1020.860352	17335.326172
1019.740234	17485.453125
1018.619141	17428.062500
1017.498047	17239.117188
1016.376953	17277.677734
1015.255859	17227.054688
1014.133789	17214.339844
1013.011719	17382.111328
1011.889648	17534.212891
1010.767578	17307.623047
1009.644531	17481.937500
1008.521484	17259.908203
1007.398438	17398.542969
1006.274414	17307.914063
1005.151367	17155.031250
1004.027344	17278.023438
1002.902344	17323.126953
1001.778320	17452.693359
1000.653320	17557.751953
999.528320	17316.083984
998.403320	17534.433594
997.278320	17417.267578
996.152344	17571.089844
995.026367	17675.998047
993.900391	17754.218750
992.773438	17901.203125
991.646484	17870.613281
990.519531	18059.652344
989.392578	17953.630859
988.265625	18204.650391
987.137695	18471.076172
986.009766	18639.861328
984.881836	18609.138672
983.752930	18667.042969
982.624023	18408.187500
981.495117	18629.976563
980.366211	18696.689453
979.236328	18561.947266
978.106445	18305.552734
976.976563	18179.802734
975.846680	18175.767578
974.715820	17983.755859
973.585938	17838.259766
972.454102	17865.244141
971.323242	17752.984375
970.191406	17554.601563
969.060547	17351.888672
967.927734	17557.841797
966.795898	17288.974609
965.663086	17161.505859
964.530273	17409.294922
963.397461	17765.093750
962.264648	17836.148438
961.130859	17779.244141
959.997070	17852.466797
958.863281	18137.294922
957.729492	17818.068359
956.594727	17807.490234
955.459961	17851.994141
954.325195	17740.087891
953.189453	17372.779297
952.053711	17507.613281
950.917969	17239.570313
949.782227	17266.537109
948.646484	17146.078125
947.509766	17335.828125
946.373047	17123.035156
945.235352	17046.658203
944.098633	17157.164063
942.960938	16957.736328
941.823242	17171.478516
940.685547	17084.167969
939.546875	17148.439453
938.408203	17170.958984
937.269531	17136.388672
936.129883	17233.521484
934.991211	17475.433594
933.851563	17557.087891
932.711914	17533.423828
931.571289	17750.980469
930.431641	17626.431641
929.291016	17846.058594
928.149414	17890.277344
927.008789	18013.345703
925.867188	17803.419922
924.725586	18086.312500
923.583984	17777.937500
922.441406	17682.023438
921.299805	17627.730469
920.157227	17759.435547
919.013672	17335.468750
917.871094	17202.556641
916.727539	17069.701172
915.583984	16781.699219
914.439453	16742.970703
913.295898	17007.970703
912.151367	16704.880859
911.006836	16537.333984
909.861328	16500.873047
908.716797	16490.623047
907.571289	16561.128906
906.424805	16419.943359
905.279297	16248.278320
904.132813	16589.240234
902.986328	16387.083984
901.839844	16204.635742
900.692383	16423.316406
899.545898	16280.164063
898.398438	16378.902344
897.250000	16571.253906
896.102539	16630.681641
894.954102	16276.421875
893.805664	16538.316406
892.656250	16617.292969
891.507813	16450.378906
890.358398	16472.781250
889.208984	16392.960938
888.058594	16430.582031
886.908203	16394.279297
885.758789	16429.707031
884.607422	16415.144531
883.457031	16061.715820
882.305664	16199.263672
881.154297	16384.517578
880.002930	16176.771484
878.850586	16192.660156
877.698242	16117.407227
876.545898	16194.041016
875.393555	16071.104492
874.240234	15889.676758
873.086914	15966.304688
871.933594	15902.017578
870.780273	15956.936523
869.625977	15940.338867
868.471680	15904.253906
867.317383	16173.507813
866.162109	15890.582031
865.007813	15912.967773
863.852539	15792.521484
862.696289	15756.503906
861.541016	15876.235352
860.384766	15885.624023
859.228516	15923.113281
858.072266	15653.650391
856.915039	15591.764648
855.757813	15728.675781
854.600586	15779.121094
853.442383	15764.755859
852.285156	15800.054688
851.126953	15964.850586
849.968750	15972.029297
848.809570	15657.721680
847.650391	15846.162109
846.491211	15652.792969
845.332031	15798.023438
844.171875	15833.249023
843.012695	15693.889648
841.851563	15851.936523
840.691406	15781.566406
839.530273	15892.137695
838.369141	15961.746094
837.208008	15689.040039
836.046875	15762.964844
834.884766	15666.867188
833.722656	15706.340820
832.560547	15827.524414
831.397461	15907.796875
830.234375	16082.622070
829.071289	15913.477539
827.908203	15647.710938
826.744141	15781.654297
825.580078	15786.665039
824.416016	15933.396484
823.251953	15964.129883
822.086914	15848.893555
820.921875	16014.821289
819.756836	15828.824219
818.590820	15981.808594
817.425781	15909.556641
816.259766	15957.396484
815.092773	15799.441406
813.926758	15892.285156
812.759766	15796.545898
811.592773	15876.492188
810.424805	15800.071289
809.257813	15764.363281
808.089844	15810.010742
806.920898	15780.733398
805.752930	15907.657227
804.583984	15645.209961
803.415039	15733.609375
802.246094	15723.614258
801.076172	15788.438477
799.906250	15876.741211
798.736328	15736.380859
797.566406	15675.121094
796.395508	15974.816406
795.224609	15977.583008
794.053711	16146.853516
792.881836	16173.053711
791.710938	16433.949219
790.538086	16728.857422
789.366211	16771.964844
788.194336	17169.007813
787.021484	17367.613281
785.848633	17436.117188
784.674805	17530.156250
783.500977	17268.388672
782.327148	17111.101563
781.153320	16985.824219
779.979492	16941.500000
778.804688	16933.376953
777.629883	16618.839844
776.454102	16572.498047
775.279297	16568.714844
774.103516	16492.632813
772.927734	16542.013672
771.750977	16470.220703
770.575195	16746.955078
769.398438	16724.009766
768.220703	16877.365234
767.043945	16977.560547
765.866211	17141.400391
764.688477	17209.648438
763.510742	17719.253906
762.332031	17997.373047
761.153320	18322.027344
759.974609	18761.044922
758.794922	19475.476563
757.616211	20412.140625
756.436523	21467.048828
755.255859	23055.376953
754.076172	25261.488281
752.895508	27151.048828
751.714844	30153.398438
750.533203	33586.183594
749.352539	37212.089844
748.170898	41392.781250
746.988281	44116.238281
745.806641	46216.699219
744.624023	47392.238281
743.441406	47618.128906
742.258789	47197.230469
741.075195	46977.242188
739.891602	46056.042969
738.708008	45999.023438
737.523438	45623.207031
736.339844	46372.679688
735.155273	46096.128906
733.969727	45587.609375
732.785156	44549.843750
731.599609	42797.605469
730.414063	40516.933594
729.227539	37292.914063
728.041992	33743.699219
726.855469	30385.750000
725.667969	27496.994141
724.481445	25197.160156
723.293945	23589.015625
722.106445	21634.263672
720.918945	20812.699219
719.730469	19730.595703
718.541992	18844.628906
717.353516	18316.607422
716.164063	18158.902344
714.975586	17685.937500
713.786133	17414.953125
712.595703	17274.369141
711.406250	17129.648438
710.215820	16919.882813
709.025391	16819.404297
707.833984	16668.583984
706.642578	16765.496094
705.451172	16681.904297
704.259766	16741.003906
703.068359	17053.857422
701.875977	17007.998047
700.683594	17018.759766
699.490234	17668.777344
698.297852	18031.417969
697.104492	18850.593750
695.910156	19512.304688
694.716797	20236.529297
693.522461	20702.914063
692.328125	20742.103516
691.132813	20615.958984
689.938477	20770.208984
688.743164	20430.769531
687.547852	20051.753906
686.351563	19664.548828
685.155273	19049.693359
683.958984	18819.619141
682.762695	18455.943359
681.565430	18205.222656
680.368164	18184.320313
679.170898	17963.003906
677.973633	17969.300781
676.775391	18008.980469
675.577148	17710.660156
674.378906	17587.683594
673.179688	17863.064453
671.980469	17383.597656
670.781250	17306.634766
669.581055	17088.001953
668.381836	16856.966797
667.181641	16913.484375
665.980469	16759.644531
664.780273	16795.335938
663.579102	16502.130859
662.377930	16552.429688
661.175781	16563.173828
659.973633	16875.519531
658.771484	16526.414063
657.569336	16786.644531
656.367188	16822.263672
655.164063	16911.896484
653.960938	17163.542969
652.756836	17199.044922
651.552734	17444.277344
650.348633	17820.197266
649.144531	18044.412109
647.939453	18214.566406
646.735352	18563.070313
645.529297	18621.011719
644.324219	18701.736328
643.118164	18877.794922
641.912109	18867.214844
640.706055	18709.498047
639.499023	18607.792969
638.292969	18323.849609
637.084961	18168.433594
635.877930	17789.478516
634.669922	17717.056641
633.461914	17520.496094
632.253906	17232.986328
631.044922	17040.763672
629.836914	17055.435547
628.626953	16921.230469
627.417969	16760.216797
626.208008	17041.535156
624.998047	16901.226563
623.788086	17108.017578
622.577148	16833.515625
621.366211	16689.218750
620.155273	16592.466797
618.944336	16407.013672
617.732422	16320.685547
616.520508	16240.583984
615.308594	16133.708008
614.095703	16014.508789
612.882813	16146.853516
611.669922	15910.232422
610.457031	15710.807617
609.243164	15610.352539
608.029297	15777.674805
606.815430	15526.940430
605.600586	15679.792969
604.385742	15480.646484
603.170898	15658.127930
601.955078	15570.160156
600.740234	15644.705078
599.524414	15665.754883
598.307617	15684.738281
597.091797	15944.168945
595.875000	15899.380859
594.658203	15844.340820
593.440430	15931.035156
592.222656	15853.425781
591.004883	15704.001953
589.787109	15692.153320
588.568359	15637.219727
587.349609	15356.659180
586.130859	15186.975586
584.912109	15220.363281
583.692383	15266.034180
582.472656	15160.021484
581.251953	15097.085938
580.032227	15294.341797
578.811523	15305.131836
577.589844	15367.106445
576.369141	15490.463867
575.147461	16006.716797
573.925781	16078.712891
572.703125	16449.343750
571.481445	16750.265625
570.258789	17245.296875
569.035156	17580.644531
567.812500	17725.761719
566.588867	18126.226563
565.365234	18285.449219
564.140625	18448.681641
562.916992	18579.166016
561.692383	18744.294922
560.466797	18682.798828
559.242188	18627.453125
558.016602	18408.931641
556.791016	17807.080078
555.564453	17415.529297
554.337891	17197.437500
553.111328	16812.320313
551.884766	16290.861328
550.657227	16046.696289
549.429688	15694.699219
548.202148	15676.803711
546.974609	15402.412109
545.746094	15398.836914
544.517578	15492.933594
543.288086	15346.935547
542.058594	15233.544922
540.829102	15329.644531
539.599609	14988.624023
538.370117	14905.879883
537.139648	15225.501953
535.909180	15112.267578
534.677734	14950.339844
533.446289	14940.777344
532.214844	15036.782227
530.983398	14901.367188
529.750977	14837.034180
528.519531	14811.274414
527.286133	14665.862305
526.053711	14682.734375
524.820313	14535.390625
523.586914	14631.328125
522.353516	14820.430664
521.119141	14735.956055
519.884766	14704.178711
518.650391	14662.291992
517.415039	14681.156250
516.179688	14704.058594
514.944336	14443.661133
513.708984	14416.031250
