#Wave		#Intensity
1585.210938	24037.343750
1584.209961	24199.691406
1583.208984	24057.333984
1582.208008	24062.337891
1581.206055	23770.300781
1580.204102	23805.306641
1579.202148	23837.800781
1578.200195	23718.113281
1577.198242	23476.267578
1576.195313	23546.208984
1575.192383	23643.544922
1574.189453	23481.621094
1573.186523	23419.443359
1572.182617	23526.707031
1571.178711	23344.978516
1570.174805	23148.382813
1569.170898	22902.068359
1568.166992	23240.859375
1567.162109	23343.068359
1566.158203	23248.652344
1565.153320	23251.302734
1564.147461	23022.628906
1563.142578	23214.318359
1562.136719	23269.181641
1561.130859	23495.541016
1560.125000	23627.365234
1559.119141	24179.054688
1558.113281	24176.533203
1557.106445	24481.992188
1556.099609	24620.947266
1555.092773	24710.191406
1554.084961	25362.851563
1553.078125	25394.826172
1552.070313	25838.654297
1551.062500	26056.562500
1550.054688	26527.349609
1549.045898	26953.308594
1548.038086	27624.521484
1547.029297	28273.146484
1546.020508	28874.417969
1545.011719	29718.240234
1544.001953	30299.146484
1542.992188	30864.951172
1541.982422	31512.228516
1540.972656	32000.804688
1539.962891	32382.751953
1538.952148	32556.683594
1537.942383	33255.023438
1536.931641	33297.605469
1535.919922	33045.890625
1534.909180	32912.957031
1533.897461	32278.275391
1532.886719	31821.796875
1531.874023	31202.427734
1530.862305	30761.179688
1529.850586	29789.091797
1528.837891	29089.035156
1527.825195	28608.992188
1526.812500	27647.824219
1525.799805	27091.773438
1524.786133	26627.244141
1523.772461	26150.572266
1522.758789	25494.054688
1521.745117	24988.222656
1520.731445	25005.236328
1519.716797	24765.906250
1518.702148	24593.208984
1517.687500	24368.843750
1516.672852	24294.826172
1515.657227	24592.708984
1514.642578	24469.429688
1513.626953	24210.808594
1512.610352	24476.525391
1511.594727	24341.039063
1510.579102	24240.050781
1509.562500	24291.603516
1508.545898	24306.244141
1507.529297	24384.804688
1506.511719	24401.876953
1505.494141	24303.431641
1504.477539	24224.683594
1503.458984	24558.677734
1502.441406	24681.306641
1501.423828	24131.054688
1500.405273	24467.310547
1499.386719	24076.875000
1498.368164	24317.292969
1497.348633	24393.220703
1496.330078	24309.669922
1495.310547	24363.494141
1494.291016	24557.058594
1493.271484	24238.175781
1492.250977	24252.761719
1491.231445	24316.349609
1490.210938	24281.910156
1489.190430	24786.371094
1488.168945	24526.541016
1487.148438	24259.470703
1486.126953	24325.433594
1485.105469	24516.187500
1484.083984	24631.005859
1483.061523	24811.830078
1482.040039	25146.671875
1481.017578	24926.259766
1479.995117	25141.134766
1478.971680	25363.253906
1477.949219	25573.058594
1476.925781	25785.218750
1475.902344	26173.177734
1474.878906	26399.777344
1473.855469	26809.421875
1472.831055	27533.832031
1471.806641	27916.220703
1470.782227	28303.328125
1469.757813	29029.414063
1468.733398	29625.912109
1467.708008	30000.226563
1466.682617	30774.271484
1465.657227	31604.062500
1464.631836	32630.931641
1463.605469	33601.324219
1462.579102	34386.156250
1461.552734	35596.925781
1460.526367	36855.894531
1459.500000	37736.949219
1458.472656	38895.144531
1457.445313	39568.531250
1456.417969	39638.179688
1455.390625	39875.664063
1454.362305	39787.121094
1453.334961	39435.980469
1452.306641	38462.582031
1451.277344	37944.132813
1450.249023	37124.550781
1449.219727	35897.105469
1448.191406	34862.082031
1447.162109	34118.933594
1446.131836	32795.742188
1445.102539	31844.542969
1444.072266	31129.177734
1443.041992	30469.921875
1442.011719	29255.333984
1440.981445	29021.238281
1439.950195	28316.748047
1438.918945	27709.535156
1437.887695	27388.630859
1436.856445	27041.197266
1435.825195	26715.714844
1434.792969	26569.644531
1433.760742	26486.611328
1432.728516	26108.164063
1431.696289	25921.148438
1430.663086	25526.029297
1429.629883	25397.291016
1428.596680	25372.652344
1427.563477	25304.476563
1426.530273	25163.767578
1425.496094	24909.462891
1424.461914	24809.992188
1423.427734	24326.234375
1422.393555	24371.921875
1421.358398	24088.994141
1420.323242	23960.783203
1419.288086	23871.265625
1418.252930	23472.710938
1417.217773	23477.480469
1416.181641	23791.193359
1415.145508	23487.011719
1414.109375	23786.113281
1413.073242	23764.275391
1412.036133	23530.222656
1411.000000	23764.021484
1409.962891	24123.076172
1408.924805	24387.984375
1407.887695	24660.009766
1406.849609	24980.101563
1405.812500	25249.478516
1404.773438	25795.675781
1403.735352	26199.591797
1402.697266	26634.632813
1401.658203	26963.599609
1400.619141	27573.939453
1399.580078	27796.724609
1398.540039	27834.220703
1397.500977	27953.455078
1396.460938	28337.089844
1395.420898	27898.531250
1394.380859	27863.875000
1393.339844	27761.958984
1392.298828	27451.101563
1391.257813	27680.730469
1390.216797	27461.257813
1389.175781	27402.714844
1388.133789	27269.791016
1387.091797	27309.691406
1386.049805	27551.095703
1385.007813	27646.083984
1383.964844	27618.728516
1382.922852	28291.478516
1381.879883	28340.703125
1380.835938	28600.804688
1379.792969	28980.599609
1378.749023	29173.378906
1377.706055	29198.419922
1376.661133	29503.613281
1375.617188	30048.085938
1374.573242	29989.148438
1373.528320	30054.671875
1372.483398	30170.412109
1371.438477	30231.082031
1370.392578	30483.052734
1369.347656	30574.712891
1368.301758	30585.052734
1367.255859	30416.128906
1366.208984	30605.712891
1365.163086	30761.767578
1364.116211	30628.736328
1363.069336	31033.078125
1362.022461	31009.869141
1360.974609	30664.414063
1359.927734	30887.107422
1358.879883	31379.332031
1357.832031	31470.570313
1356.783203	31509.298828
1355.735352	31948.615234
1354.686523	32342.451172
1353.637695	32330.908203
1352.588867	32874.628906
1351.539063	33375.230469
1350.490234	34120.976563
1349.440430	35421.316406
1348.390625	35752.003906
1347.339844	36584.859375
1346.290039	38033.800781
1345.239258	38204.296875
1344.188477	38995.660156
1343.137695	39484.605469
1342.085938	40586.894531
1341.034180	40939.773438
1339.982422	41760.792969
1338.930664	42158.425781
1337.878906	42446.593750
1336.826172	42941.308594
1335.773438	43609.199219
1334.720703	43360.210938
1333.667969	43389.093750
1332.614258	43617.343750
1331.561523	42870.144531
1330.507813	42671.332031
1329.453125	42147.621094
1328.399414	41870.773438
1327.344727	40633.742188
1326.290039	40843.296875
1325.235352	39734.980469
1324.180664	39544.167969
1323.125000	39128.367188
1322.070313	39117.769531
1321.014648	39000.613281
1319.958008	38547.296875
1318.902344	38136.777344
1317.845703	37821.089844
1316.789063	37649.871094
1315.732422	36828.171875
1314.675781	36096.687500
1313.618164	35800.605469
1312.560547	34996.355469
1311.502930	33894.621094
1310.445313	33301.421875
1309.386719	32318.636719
1308.329102	31489.802734
1307.270508	30543.230469
1306.210938	29889.839844
1305.152344	29602.623047
1304.092773	28935.541016
1303.033203	28089.402344
1301.973633	27882.953125
1300.914063	27575.164063
1299.853516	27475.023438
1298.792969	27061.351563
1297.732422	26826.998047
1296.671875	26873.185547
1295.611328	26393.923828
1294.549805	26847.712891
1293.488281	26512.320313
1292.426758	26775.158203
1291.364258	26324.564453
1290.302734	26462.582031
1289.240234	26584.066406
1288.177734	26305.539063
1287.114258	26525.792969
1286.051758	26259.150391
1284.988281	26364.109375
1283.924805	26595.958984
1282.861328	26341.216797
1281.796875	26549.472656
1280.732422	26207.919922
1279.667969	26545.292969
1278.603516	26734.582031
1277.539063	26517.630859
1276.473633	26817.162109
1275.408203	26877.197266
1274.342773	26918.435547
1273.277344	27025.333984
1272.210938	27122.804688
1271.145508	27426.570313
1270.079102	27024.583984
1269.011719	27044.642578
1267.945313	27352.912109
1266.877930	27077.699219
1265.810547	26633.958984
1264.743164	26426.921875
1263.674805	26250.408203
1262.607422	25982.675781
1261.539063	25429.541016
1260.470703	24970.230469
1259.401367	24798.845703
1258.333008	24540.996094
1257.263672	23995.642578
1256.194336	24056.011719
1255.125000	23592.794922
1254.054688	23377.474609
1252.985352	23068.791016
1251.915039	22519.646484
1250.843750	22328.039063
1249.773438	22447.044922
1248.702148	22402.593750
1247.630859	21875.054688
1246.559570	21613.740234
1245.488281	21546.160156
1244.416016	21268.695313
1243.343750	21457.718750
1242.271484	21355.240234
1241.199219	21367.015625
1240.125977	20919.703125
1239.053711	21169.208984
1237.980469	20868.875000
1236.906250	20880.736328
1235.833008	20887.935547
1234.758789	21083.687500
1233.684570	20762.673828
1232.610352	20837.369141
1231.536133	21086.509766
1230.460938	20795.931641
1229.385742	20849.636719
1228.310547	21080.011719
1227.235352	21094.115234
1226.159180	21054.761719
1225.083008	21145.535156
1224.006836	21278.080078
1222.930664	21301.412109
1221.853516	21115.757813
1220.777344	21638.222656
1219.700195	21821.605469
1218.622070	21763.578125
1217.544922	21963.089844
1216.466797	22160.197266
1215.388672	22296.923828
1214.310547	22632.980469
1213.232422	22764.908203
1212.153320	22790.173828
1211.074219	22928.958984
1209.995117	23287.750000
1208.916016	23461.105469
1207.835938	23541.765625
1206.755859	23346.902344
1205.675781	23443.750000
1204.595703	23390.142578
1203.514648	23315.734375
1202.434570	23280.677734
1201.353516	22970.441406
1200.271484	22692.707031
1199.190430	22914.380859
1198.108398	22627.529297
1197.026367	22481.740234
1195.944336	22366.042969
1194.862305	22058.699219
1193.779297	21742.250000
1192.696289	21776.837891
1191.613281	21490.585938
1190.530273	21522.902344
1189.446289	21038.412109
1188.362305	20800.935547
1187.278320	20771.107422
1186.194336	20501.507813
1185.109375	20158.259766
1184.024414	20405.138672
1182.939453	19995.234375
1181.854492	19827.384766
1180.768555	19758.640625
1179.683594	19676.109375
1178.597656	19570.589844
1177.510742	19663.056641
1176.424805	19525.365234
1175.337891	19576.386719
1174.250977	19245.556641
1173.164063	19609.369141
1172.077148	19136.121094
1170.989258	19467.615234
1169.901367	19242.802734
1168.813477	19401.802734
1167.724609	19381.548828
1166.636719	19558.820313
1165.547852	19430.615234
1164.458984	19467.755859
1163.369141	19766.537109
1162.280273	19493.796875
1161.190430	19753.437500
1160.100586	20031.314453
1159.010742	20164.595703
1157.919922	20478.945313
1156.829102	20605.191406
1155.738281	20515.957031
1154.647461	20392.386719
1153.555664	20436.097656
1152.464844	20788.976563
1151.373047	20560.093750
1150.280273	20242.023438
1149.188477	20688.552734
1148.095703	20391.183594
1147.002930	20020.730469
1145.910156	20014.123047
1144.817383	20089.839844
1143.723633	19804.283203
1142.629883	19729.144531
1141.536133	19562.623047
1140.441406	19236.230469
1139.347656	19259.486328
1138.252930	19104.587891
1137.158203	19203.210938
1136.062500	19372.558594
1134.967773	18964.384766
1133.872070	19008.203125
1132.776367	19013.216797
1131.679688	19123.148438
1130.583984	19043.755859
1129.487305	19012.275391
1128.390625	19149.484375
1127.292969	19081.527344
1126.196289	19022.712891
1125.098633	18879.638672
1124.000977	18925.652344
1122.903320	18944.320313
1121.804688	19204.285156
1120.706055	19118.187500
1119.607422	18861.464844
1118.508789	18884.673828
1117.409180	18873.755859
1116.310547	18867.386719
1115.210938	18899.669922
1114.110352	18850.109375
1113.010742	18773.296875
1111.910156	18548.833984
1110.809570	18703.814453
1109.708984	18547.593750
1108.607422	18802.408203
1107.506836	18439.654297
1106.405273	18496.925781
1105.303711	18241.039063
1104.201172	18418.560547
1103.098633	18405.484375
1101.996094	18274.498047
1100.893555	18116.361328
1099.791016	18309.615234
1098.687500	18201.390625
1097.583984	18215.554688
1096.480469	18469.814453
1095.376953	18391.062500
1094.272461	18221.775391
1093.167969	18521.136719
1092.063477	18702.679688
1090.958008	18716.707031
1089.853516	18644.765625
1088.748047	18887.224609
1087.642578	19032.345703
1086.536133	19331.128906
1085.430664	19629.779297
1084.324219	19878.585938
1083.217773	20068.541016
1082.110352	20335.208984
1081.003906	20836.613281
1079.896484	21141.375000
1078.789063	21396.341797
1077.680664	21524.818359
1076.573242	21511.093750
1075.464844	21639.486328
1074.356445	21461.103516
1073.247070	21415.828125
1072.138672	21411.148438
1071.029297	21012.056641
1069.919922	20725.800781
1068.809570	20547.804688
1067.700195	20534.300781
1066.589844	20086.203125
1065.479492	20144.845703
1064.368164	19652.007813
1063.257813	19661.208984
1062.146484	19557.912109
1061.035156	19177.988281
1059.922852	18998.376953
1058.811523	18706.425781
1057.699219	18432.583984
1056.586914	18466.750000
1055.473633	18370.582031
1054.361328	18204.814453
1053.248047	18353.544922
1052.134766	18122.734375
1051.021484	17889.777344
1049.907227	18002.564453
1048.792969	18074.910156
1047.678711	18023.832031
1046.564453	17916.699219
1045.449219	17930.707031
1044.333984	17893.140625
1043.218750	18124.566406
1042.103516	17802.367188
1040.987305	17764.849609
1039.871094	17843.826172
1038.754883	17911.570313
1037.638672	18062.125000
1036.521484	17885.789063
1035.404297	18094.468750
1034.287109	18039.027344
1033.169922	18021.636719
1032.051758	18015.435547
1030.933594	17948.863281
1029.815430	17866.667969
1028.697266	18010.250000
1027.578125	18068.853516
1026.458984	17908.488281
1025.339844	17909.011719
1024.220703	17969.828125
1023.100586	18097.593750
1021.980469	17816.822266
1020.860352	18373.035156
1019.740234	17980.767578
1018.619141	18168.638672
1017.498047	18050.894531
1016.376953	17997.861328
1015.255859	18047.390625
1014.133789	18101.355469
1013.011719	17852.259766
1011.889648	17932.970703
1010.767578	18002.511719
1009.644531	18123.232422
1008.521484	17956.714844
1007.398438	17861.494141
1006.274414	17701.781250
1005.151367	18098.324219
1004.027344	17925.281250
1002.902344	18103.667969
1001.778320	18199.712891
1000.653320	18084.550781
999.528320	18322.781250
998.403320	18196.529297
997.278320	18119.199219
996.152344	18268.425781
995.026367	18377.621094
993.900391	18433.488281
992.773438	18602.515625
991.646484	18620.583984
990.519531	19042.384766
989.392578	19118.009766
988.265625	19033.949219
987.137695	19251.419922
986.009766	19351.322266
984.881836	19526.521484
983.752930	19351.605469
982.624023	19595.384766
981.495117	19227.871094
980.366211	19360.871094
979.236328	19141.871094
978.106445	19122.132813
976.976563	18892.216797
975.846680	18808.390625
974.715820	18700.275391
973.585938	18605.472656
972.454102	18134.923828
971.323242	18150.785156
970.191406	18195.361328
969.060547	17994.714844
967.927734	18169.605469
966.795898	17898.394531
965.663086	18130.621094
964.530273	17941.197266
963.397461	18206.406250
962.264648	18195.738281
961.130859	18063.765625
959.997070	18275.843750
958.863281	18344.529297
957.729492	18455.058594
956.594727	18199.736328
955.459961	18138.400391
954.325195	18193.832031
953.189453	18020.212891
952.053711	18095.457031
950.917969	18001.175781
949.782227	17988.359375
948.646484	18067.957031
947.509766	17819.761719
946.373047	17859.771484
945.235352	17822.806641
944.098633	17961.714844
942.960938	17748.921875
941.823242	17944.910156
940.685547	17993.625000
939.546875	18189.468750
938.408203	18455.486328
937.269531	18018.894531
936.129883	18339.697266
934.991211	18451.898438
933.851563	18805.367188
932.711914	18770.457031
931.571289	18805.732422
930.431641	18827.835938
929.291016	18920.066406
928.149414	19371.638672
927.008789	18992.666016
925.867188	19251.261719
924.725586	19071.763672
923.583984	18704.054688
922.441406	18594.798828
921.299805	18660.666016
920.157227	18588.662109
919.013672	18039.824219
917.871094	18029.222656
916.727539	17872.130859
915.583984	17717.294922
914.439453	17816.041016
913.295898	17637.248047
912.151367	17465.087891
911.006836	17522.324219
909.861328	17531.496094
908.716797	17743.683594
907.571289	17624.027344
906.424805	17441.144531
905.279297	17426.322266
904.132813	17282.822266
902.986328	17257.136719
901.839844	17331.744141
900.692383	17301.697266
899.545898	17326.138672
898.398438	17452.964844
897.250000	17374.986328
896.102539	17388.501953
894.954102	17556.589844
893.805664	17594.000000
892.656250	17435.535156
891.507813	17237.978516
890.358398	17244.976563
889.208984	17291.115234
888.058594	17221.998047
886.908203	17237.687500
885.758789	17079.507813
884.607422	17310.320313
883.457031	17132.640625
882.305664	17113.580078
881.154297	17094.527344
880.002930	17045.089844
878.850586	17108.529297
877.698242	16948.447266
876.545898	17061.771484
875.393555	16940.808594
874.240234	16678.957031
873.086914	16998.207031
871.933594	16831.820313
870.780273	16977.539063
869.625977	16692.078125
868.471680	16774.949219
867.317383	16630.410156
866.162109	16630.988281
865.007813	16715.974609
863.852539	16865.841797
862.696289	16833.908203
861.541016	16628.951172
860.384766	16642.494141
859.228516	16671.164063
858.072266	16775.472656
856.915039	16808.419922
855.757813	16821.904297
854.600586	16800.822266
853.442383	16559.472656
852.285156	16737.089844
851.126953	16623.216797
849.968750	16891.376953
848.809570	16796.935547
847.650391	16760.779297
846.491211	16791.492188
845.332031	16770.441406
844.171875	16820.537109
843.012695	16833.970703
841.851563	16651.320313
840.691406	16641.085938
839.530273	16568.398438
838.369141	16553.878906
837.208008	16625.474609
836.046875	16793.884766
834.884766	16897.666016
833.722656	16751.853516
832.560547	16726.546875
831.397461	16720.603516
830.234375	16531.929688
829.071289	16829.082031
827.908203	16664.103516
826.744141	16881.601563
825.580078	16577.072266
824.416016	16858.908203
823.251953	16779.941406
822.086914	16658.080078
820.921875	16795.927734
819.756836	16671.970703
818.590820	16809.748047
817.425781	16623.652344
816.259766	16619.876953
815.092773	16622.529297
813.926758	16661.611328
812.759766	16668.537109
811.592773	16662.605469
810.424805	16738.052734
809.257813	16732.107422
808.089844	16593.447266
806.920898	16382.087891
805.752930	16840.507813
804.583984	16776.781250
803.415039	16550.550781
802.246094	16816.185547
801.076172	16733.265625
799.906250	16592.679688
798.736328	16749.150391
797.566406	16514.630859
796.395508	16829.083984
795.224609	16957.632813
794.053711	16977.251953
792.881836	17188.937500
791.710938	17274.638672
790.538086	17821.076172
789.366211	17889.527344
788.194336	18111.470703
787.021484	18243.773438
785.848633	18422.906250
784.674805	18544.421875
783.500977	18222.773438
782.327148	18344.277344
781.153320	18297.503906
779.979492	18169.855469
778.804688	17908.173828
777.629883	17638.099609
776.454102	17876.597656
775.279297	17723.632813
774.103516	17557.976563
772.927734	17751.679688
771.750977	17713.617188
770.575195	17688.322266
769.398438	17926.472656
768.220703	17886.267578
767.043945	18158.238281
765.866211	18489.529297
764.688477	18585.062500
763.510742	19221.677734
762.332031	19325.482422
761.153320	20021.025391
759.974609	20868.931641
758.794922	21266.982422
757.616211	22521.183594
756.436523	23855.337891
755.255859	25432.527344
754.076172	28203.648438
752.895508	30765.964844
751.714844	34665.187500
750.533203	38971.152344
749.352539	43135.468750
748.170898	46917.035156
746.988281	49783.070313
745.806641	52370.750000
744.624023	53145.273438
743.441406	53312.773438
742.258789	52081.160156
741.075195	50216.250000
739.891602	48768.328125
738.708008	47849.039063
737.523438	47027.289063
736.339844	47092.500000
735.155273	45861.871094
733.969727	44802.707031
732.785156	43288.382813
731.599609	41114.636719
730.414063	38138.542969
729.227539	34953.015625
728.041992	32175.697266
726.855469	29140.484375
725.667969	26896.623047
724.481445	24853.869141
723.293945	23315.287109
722.106445	22118.439453
720.918945	21218.892578
719.730469	20538.587891
718.541992	19862.802734
717.353516	19395.539063
716.164063	18978.955078
714.975586	18652.955078
713.786133	18633.957031
712.595703	18259.855469
711.406250	18045.582031
710.215820	17940.621094
709.025391	17936.498047
707.833984	17705.646484
706.642578	17852.693359
705.451172	17871.669922
704.259766	17720.708984
703.068359	18058.505859
701.875977	18048.062500
700.683594	18157.117188
699.490234	18649.677734
698.297852	19406.037109
697.104492	20122.244141
695.910156	20827.646484
694.716797	21691.867188
693.522461	22155.824219
692.328125	22094.210938
691.132813	22593.433594
689.938477	22485.718750
688.743164	21947.181641
687.547852	21841.753906
686.351563	21184.443359
685.155273	20677.925781
683.958984	20161.191406
682.762695	19805.562500
681.565430	19249.578125
680.368164	19305.701172
679.170898	19194.777344
677.973633	19117.298828
676.775391	19142.105469
675.577148	19141.865234
674.378906	19026.904297
673.179688	18801.470703
671.980469	18632.431641
670.781250	18461.382813
669.581055	18717.613281
668.381836	18371.615234
667.181641	17877.884766
665.980469	17757.142578
664.780273	17536.519531
663.579102	17667.771484
662.377930	17557.562500
661.175781	17428.677734
659.973633	17372.654297
658.771484	17441.429688
657.569336	17776.296875
656.367188	17886.515625
655.164063	17838.746094
653.960938	18048.625000
652.756836	18314.490234
651.552734	18615.537109
650.348633	18746.191406
649.144531	19040.767578
647.939453	19385.013672
646.735352	19662.705078
645.529297	20043.982422
644.324219	20153.412109
643.118164	19968.375000
641.912109	19876.699219
640.706055	19849.308594
639.499023	19312.242188
638.292969	19185.564453
637.084961	18789.718750
635.877930	18418.902344
634.669922	18427.064453
633.461914	17996.484375
632.253906	17859.904297
631.044922	17650.986328
629.836914	17491.798828
628.626953	17622.146484
627.417969	17423.761719
626.208008	17320.533203
624.998047	17155.365234
623.788086	17114.214844
622.577148	17184.601563
621.366211	17095.972656
620.155273	17176.650391
618.944336	17112.826172
617.732422	16619.863281
616.520508	16851.179688
615.308594	16863.777344
614.095703	16872.244141
612.882813	16864.216797
611.669922	16746.962891
610.457031	16728.662109
609.243164	16496.132813
608.029297	16490.253906
606.815430	16558.500000
605.600586	16807.865234
604.385742	16544.658203
603.170898	16522.308594
601.955078	16736.533203
600.740234	16629.826172
599.524414	16634.199219
598.307617	16646.791016
597.091797	16601.830078
595.875000	16854.822266
594.658203	16902.273438
593.440430	16861.388672
592.222656	16884.175781
591.004883	16894.632813
589.787109	16632.123047
588.568359	16535.933594
587.349609	16437.738281
586.130859	16310.874023
584.912109	16235.328125
583.692383	16221.314453
582.472656	16268.791016
581.251953	16476.068359
580.032227	16443.568359
578.811523	16384.458984
577.589844	16814.746094
576.369141	16655.267578
575.147461	17111.898438
573.925781	17212.285156
572.703125	17738.125000
571.481445	17948.757813
570.258789	18261.529297
569.035156	18633.437500
567.812500	19111.449219
566.588867	19231.658203
565.365234	19535.666016
564.140625	19696.566406
562.916992	19863.515625
561.692383	19987.517578
560.466797	20125.746094
559.242188	19741.550781
558.016602	19637.009766
556.791016	19289.814453
555.564453	18942.777344
554.337891	18124.990234
553.111328	17894.554688
551.884766	17258.736328
550.657227	16934.898438
549.429688	16550.107422
548.202148	16369.116211
546.974609	16387.710938
545.746094	16101.004883
544.517578	16278.364258
543.288086	16451.572266
542.058594	16201.658203
540.829102	15964.059570
539.599609	16192.105469
538.370117	16176.152344
537.139648	15987.488281
535.909180	15876.108398
534.677734	15821.647461
533.446289	15803.760742
532.214844	15840.693359
530.983398	15922.258789
529.750977	15920.591797
528.519531	15744.458984
527.286133	15813.819336
526.053711	15838.536133
524.820313	15755.795898
523.586914	15904.146484
522.353516	15653.244141
521.119141	15908.916992
519.884766	15737.117188
518.650391	15682.840820
517.415039	15693.370117
516.179688	15677.583008
514.944336	15459.453125
513.708984	15470.024414
