#Wave		#Intensity
1585.210938	22096.673828
1584.209961	22311.470703
1583.208984	22374.269531
1582.208008	22172.402344
1581.206055	22030.523438
1580.204102	22118.296875
1579.202148	22138.664063
1578.200195	22086.681641
1577.198242	22012.273438
1576.195313	21947.871094
1575.192383	22170.185547
1574.189453	21951.242188
1573.186523	21921.775391
1572.182617	21849.964844
1571.178711	21760.748047
1570.174805	21482.296875
1569.170898	21624.751953
1568.166992	21595.378906
1567.162109	21523.707031
1566.158203	21457.041016
1565.153320	21761.089844
1564.147461	21552.623047
1563.142578	21580.488281
1562.136719	21573.533203
1561.130859	21621.267578
1560.125000	21947.330078
1559.119141	21766.367188
1558.113281	22256.222656
1557.106445	22581.949219
1556.099609	23031.699219
1555.092773	23103.892578
1554.084961	23357.255859
1553.078125	23823.935547
1552.070313	23853.738281
1551.062500	24550.818359
1550.054688	24535.814453
1549.045898	25098.564453
1548.038086	25713.140625
1547.029297	26342.333984
1546.020508	26465.738281
1545.011719	27250.597656
1544.001953	28267.974609
1542.992188	28789.621094
1541.982422	28999.074219
1540.972656	29597.091797
1539.962891	29640.464844
1538.952148	29802.591797
1537.942383	30365.433594
1536.931641	30299.783203
1535.919922	30066.000000
1534.909180	29899.066406
1533.897461	29786.583984
1532.886719	29038.996094
1531.874023	28318.896484
1530.862305	27811.544922
1529.850586	27215.488281
1528.837891	26802.408203
1527.825195	26280.871094
1526.812500	25673.156250
1525.799805	24641.224609
1524.786133	24312.904297
1523.772461	23977.318359
1522.758789	23602.410156
1521.745117	23294.232422
1520.731445	22981.250000
1519.716797	23124.376953
1518.702148	22584.845703
1517.687500	22604.806641
1516.672852	22311.927734
1515.657227	22546.189453
1514.642578	22529.208984
1513.626953	22578.701172
1512.610352	22544.490234
1511.594727	22522.597656
1510.579102	22633.560547
1509.562500	22508.349609
1508.545898	22488.931641
1507.529297	22400.679688
1506.511719	22314.921875
1505.494141	22774.791016
1504.477539	22384.306641
1503.458984	22566.371094
1502.441406	22652.572266
1501.423828	22647.878906
1500.405273	22603.906250
1499.386719	22636.041016
1498.368164	22439.935547
1497.348633	22432.832031
1496.330078	22644.052734
1495.310547	22425.990234
1494.291016	22632.216797
1493.271484	22514.757813
1492.250977	22544.406250
1491.231445	22471.121094
1490.210938	22657.562500
1489.190430	22601.427734
1488.168945	22831.845703
1487.148438	22633.683594
1486.126953	22954.572266
1485.105469	22690.382813
1484.083984	23025.806641
1483.061523	23006.353516
1482.040039	22915.976563
1481.017578	23351.404297
1479.995117	23160.748047
1478.971680	23356.388672
1477.949219	23312.443359
1476.925781	23867.148438
1475.902344	24238.404297
1474.878906	24345.728516
1473.855469	24846.148438
1472.831055	25463.546875
1471.806641	25734.083984
1470.782227	26634.121094
1469.757813	26911.619141
1468.733398	27391.466797
1467.708008	27834.533203
1466.682617	28682.175781
1465.657227	29473.396484
1464.631836	30534.830078
1463.605469	31527.591797
1462.579102	31947.404297
1461.552734	33153.808594
1460.526367	33953.011719
1459.500000	35036.757813
1458.472656	36071.363281
1457.445313	35898.378906
1456.417969	36197.519531
1455.390625	36776.304688
1454.362305	36394.097656
1453.334961	36085.003906
1452.306641	35673.921875
1451.277344	34754.980469
1450.249023	33863.152344
1449.219727	32855.062500
1448.191406	32053.875000
1447.162109	30944.570313
1446.131836	29862.433594
1445.102539	29101.207031
1444.072266	28723.794922
1443.041992	27785.966797
1442.011719	26892.197266
1440.981445	26445.130859
1439.950195	25959.443359
1438.918945	25483.656250
1437.887695	25279.574219
1436.856445	25128.898438
1435.825195	24609.958984
1434.792969	24471.593750
1433.760742	24369.619141
1432.728516	23780.927734
1431.696289	23865.566406
1430.663086	23695.998047
1429.629883	23294.162109
1428.596680	23485.310547
1427.563477	22996.591797
1426.530273	22798.316406
1425.496094	22713.773438
1424.461914	22402.005859
1423.427734	22404.597656
1422.393555	22088.187500
1421.358398	21924.125000
1420.323242	21832.599609
1419.288086	21760.431641
1418.252930	21835.585938
1417.217773	21594.455078
1416.181641	22000.277344
1415.145508	21795.406250
1414.109375	21636.460938
1413.073242	21687.433594
1412.036133	21962.666016
1411.000000	21989.435547
1409.962891	21883.609375
1408.924805	22211.648438
1407.887695	22539.546875
1406.849609	22802.263672
1405.812500	23428.568359
1404.773438	23597.070313
1403.735352	24013.484375
1402.697266	24140.871094
1401.658203	25093.666016
1400.619141	25074.000000
1399.580078	25241.974609
1398.540039	25525.324219
1397.500977	25808.552734
1396.460938	25581.994141
1395.420898	25627.134766
1394.380859	25693.882813
1393.339844	25529.951172
1392.298828	25385.302734
1391.257813	25392.015625
1390.216797	25331.492188
1389.175781	25035.734375
1388.133789	25090.511719
1387.091797	25114.070313
1386.049805	25315.148438
1385.007813	25329.052734
1383.964844	25510.814453
1382.922852	25551.041016
1381.879883	26183.328125
1380.835938	26256.947266
1379.792969	26733.076172
1378.749023	26775.402344
1377.706055	26997.341797
1376.661133	27185.660156
1375.617188	27206.314453
1374.573242	27243.712891
1373.528320	27680.738281
1372.483398	27808.937500
1371.438477	27922.726563
1370.392578	27816.443359
1369.347656	27934.962891
1368.301758	28120.367188
1367.255859	28030.832031
1366.208984	28275.875000
1365.163086	28117.058594
1364.116211	28364.365234
1363.069336	28396.638672
1362.022461	28674.818359
1360.974609	28396.689453
1359.927734	28689.068359
1358.879883	28828.613281
1357.832031	29154.173828
1356.783203	29281.632813
1355.735352	29182.501953
1354.686523	29953.601563
1353.637695	29949.710938
1352.588867	30458.181641
1351.539063	30761.537109
1350.490234	31562.617188
1349.440430	32756.322266
1348.390625	32880.414063
1347.339844	33580.558594
1346.290039	34658.835938
1345.239258	35165.562500
1344.188477	35750.582031
1343.137695	36680.250000
1342.085938	37433.542969
1341.034180	37401.917969
1339.982422	38425.726563
1338.930664	39102.125000
1337.878906	39253.117188
1336.826172	39477.687500
1335.773438	39773.414063
1334.720703	40092.761719
1333.667969	39751.968750
1332.614258	39736.500000
1331.561523	39564.410156
1330.507813	38989.046875
1329.453125	38596.574219
1328.399414	37630.335938
1327.344727	37081.816406
1326.290039	36509.816406
1325.235352	36231.949219
1324.180664	35823.871094
1323.125000	35648.132813
1322.070313	35481.937500
1321.014648	34863.500000
1319.958008	34884.582031
1318.902344	34647.632813
1317.845703	34441.546875
1316.789063	34178.757813
1315.732422	33133.050781
1314.675781	32643.591797
1313.618164	32376.611328
1312.560547	31242.101563
1311.502930	30623.339844
1310.445313	30068.642578
1309.386719	29346.427734
1308.329102	28440.267578
1307.270508	27605.337891
1306.210938	27122.568359
1305.152344	26630.558594
1304.092773	25999.503906
1303.033203	25212.976563
1301.973633	25448.296875
1300.914063	25067.902344
1299.853516	24581.550781
1298.792969	24635.308594
1297.732422	24436.824219
1296.671875	24031.033203
1295.611328	24461.857422
1294.549805	24218.771484
1293.488281	24310.222656
1292.426758	24276.833984
1291.364258	24257.583984
1290.302734	24012.386719
1289.240234	24188.511719
1288.177734	24044.593750
1287.114258	24237.099609
1286.051758	24097.933594
1284.988281	23968.226563
1283.924805	24139.464844
1282.861328	24110.861328
1281.796875	23941.285156
1280.732422	24114.763672
1279.667969	24156.638672
1278.603516	24384.005859
1277.539063	24207.462891
1276.473633	24326.746094
1275.408203	24530.458984
1274.342773	24921.783203
1273.277344	24897.742188
1272.210938	24969.865234
1271.145508	24587.074219
1270.079102	25198.408203
1269.011719	25209.478516
1267.945313	24988.558594
1266.877930	24786.472656
1265.810547	24521.230469
1264.743164	24117.933594
1263.674805	23810.796875
1262.607422	23480.380859
1261.539063	23292.861328
1260.470703	23093.720703
1259.401367	22723.892578
1258.333008	22328.494141
1257.263672	22197.490234
1256.194336	21956.662109
1255.125000	21748.658203
1254.054688	21159.837891
1252.985352	20800.226563
1251.915039	20851.871094
1250.843750	20693.312500
1249.773438	20653.896484
1248.702148	20292.355469
1247.630859	20278.710938
1246.559570	19968.734375
1245.488281	19595.902344
1244.416016	19615.060547
1243.343750	19436.001953
1242.271484	19415.550781
1241.199219	19229.615234
1240.125977	19295.437500
1239.053711	19279.683594
1237.980469	19135.818359
1236.906250	19252.849609
1235.833008	19351.201172
1234.758789	19347.082031
1233.684570	19159.099609
1232.610352	19287.654297
1231.536133	19099.761719
1230.460938	19198.033203
1229.385742	19291.611328
1228.310547	19199.156250
1227.235352	19401.937500
1226.159180	19204.917969
1225.083008	19342.552734
1224.006836	19363.982422
1222.930664	19371.464844
1221.853516	19313.929688
1220.777344	19514.097656
1219.700195	19616.699219
1218.622070	20025.554688
1217.544922	20118.720703
1216.466797	20318.539063
1215.388672	20413.917969
1214.310547	20653.000000
1213.232422	21040.328125
1212.153320	21021.929688
1211.074219	21142.556641
1209.995117	21464.666016
1208.916016	21316.488281
1207.835938	21832.921875
1206.755859	21513.412109
1205.675781	21406.974609
1204.595703	21545.867188
1203.514648	21455.658203
1202.434570	21381.677734
1201.353516	21252.226563
1200.271484	21120.517578
1199.190430	21062.832031
1198.108398	20986.679688
1197.026367	20806.583984
1195.944336	20612.705078
1194.862305	20074.779297
1193.779297	20068.169922
1192.696289	19685.263672
1191.613281	19556.410156
1190.530273	19372.226563
1189.446289	19298.861328
1188.362305	18985.640625
1187.278320	18838.589844
1186.194336	18813.800781
1185.109375	18636.880859
1184.024414	18865.650391
1182.939453	18467.595703
1181.854492	18150.337891
1180.768555	18337.603516
1179.683594	18144.849609
1178.597656	18122.537109
1177.510742	18017.371094
1176.424805	17932.960938
1175.337891	17728.951172
1174.250977	17895.353516
1173.164063	18077.783203
1172.077148	17837.082031
1170.989258	17539.013672
1169.901367	17509.962891
1168.813477	17798.005859
1167.724609	17876.876953
1166.636719	18010.833984
1165.547852	18023.031250
1164.458984	18133.939453
1163.369141	18166.759766
1162.280273	18410.681641
1161.190430	18475.544922
1160.100586	18613.777344
1159.010742	18777.175781
1157.919922	18690.591797
1156.829102	18532.982422
1155.738281	18897.964844
1154.647461	18946.589844
1153.555664	19098.279297
1152.464844	18860.550781
1151.373047	18890.830078
1150.280273	18802.050781
1149.188477	18717.886719
1148.095703	18562.818359
1147.002930	18657.189453
1145.910156	18545.658203
1144.817383	18726.886719
1143.723633	18494.208984
1142.629883	18204.484375
1141.536133	18529.642578
1140.441406	18089.230469
1139.347656	18117.302734
1138.252930	17889.568359
1137.158203	17892.550781
1136.062500	17881.833984
1134.967773	17811.777344
1133.872070	17908.328125
1132.776367	17797.228516
1131.679688	17793.378906
1130.583984	17616.216797
1129.487305	17813.037109
1128.390625	17594.914063
1127.292969	17648.078125
1126.196289	17471.093750
1125.098633	17722.439453
1124.000977	17420.253906
1122.903320	17407.371094
1121.804688	17567.503906
1120.706055	17390.722656
1119.607422	17644.082031
1118.508789	17601.582031
1117.409180	17615.958984
1116.310547	17639.425781
1115.210938	17633.326172
1114.110352	17372.648438
1113.010742	17171.169922
1111.910156	17349.205078
1110.809570	17106.925781
1109.708984	17200.867188
1108.607422	17081.332031
1107.506836	17138.914063
1106.405273	17141.998047
1105.303711	17013.474609
1104.201172	17091.445313
1103.098633	16897.210938
1101.996094	16941.156250
1100.893555	16889.863281
1099.791016	16872.589844
1098.687500	16993.554688
1097.583984	16989.857422
1096.480469	16949.917969
1095.376953	16857.906250
1094.272461	16951.593750
1093.167969	17251.232422
1092.063477	17141.105469
1090.958008	17126.058594
1089.853516	17291.990234
1088.748047	17602.593750
1087.642578	17757.041016
1086.536133	17920.460938
1085.430664	18269.142578
1084.324219	18631.230469
1083.217773	18803.384766
1082.110352	19253.285156
1081.003906	19551.685547
1079.896484	19592.572266
1078.789063	19687.615234
1077.680664	20028.597656
1076.573242	19924.949219
1075.464844	19988.271484
1074.356445	20071.859375
1073.247070	20229.818359
1072.138672	19961.646484
1071.029297	19923.476563
1069.919922	19551.835938
1068.809570	18914.523438
1067.700195	19000.478516
1066.589844	18874.724609
1065.479492	18699.496094
1064.368164	18242.986328
1063.257813	17953.201172
1062.146484	17753.535156
1061.035156	17515.716797
1059.922852	17568.101563
1058.811523	17213.509766
1057.699219	17461.500000
1056.586914	17035.166016
1055.473633	17038.173828
1054.361328	16953.570313
1053.248047	16875.738281
1052.134766	16458.882813
1051.021484	16769.562500
1049.907227	16833.216797
1048.792969	16742.011719
1047.678711	16592.513672
1046.564453	16425.136719
1045.449219	16654.748047
1044.333984	16586.074219
1043.218750	16472.599609
1042.103516	16697.562500
1040.987305	16716.300781
1039.871094	16766.386719
1038.754883	16565.626953
1037.638672	16658.263672
1036.521484	16643.408203
1035.404297	16550.228516
1034.287109	16524.214844
1033.169922	16737.572266
1032.051758	16613.117188
1030.933594	16591.574219
1029.815430	16489.556641
1028.697266	16651.324219
1027.578125	16502.410156
1026.458984	16746.761719
1025.339844	16635.859375
1024.220703	16795.212891
1023.100586	16699.974609
1021.980469	16694.062500
1020.860352	16697.078125
1019.740234	16724.634766
1018.619141	16596.031250
1017.498047	16634.744141
1016.376953	16682.357422
1015.255859	16622.949219
1014.133789	16534.591797
1013.011719	16495.291016
1011.889648	16676.548828
1010.767578	16766.410156
1009.644531	16842.871094
1008.521484	16451.789063
1007.398438	16724.146484
1006.274414	16658.144531
1005.151367	16694.509766
1004.027344	16746.425781
1002.902344	16638.207031
1001.778320	16867.972656
1000.653320	16813.119141
999.528320	16769.400391
998.403320	16914.550781
997.278320	16955.234375
996.152344	16989.236328
995.026367	17018.781250
993.900391	17263.636719
992.773438	17244.279297
991.646484	17369.152344
990.519531	17584.923828
989.392578	17769.546875
988.265625	18027.259766
987.137695	18138.542969
986.009766	17835.310547
984.881836	18050.730469
983.752930	18166.361328
982.624023	18357.244141
981.495117	18184.876953
980.366211	17981.587891
979.236328	17984.238281
978.106445	17688.138672
976.976563	17651.025391
975.846680	17565.263672
974.715820	17276.082031
973.585938	17265.613281
972.454102	16914.730469
971.323242	16771.742188
970.191406	16878.490234
969.060547	16894.621094
967.927734	16844.486328
966.795898	17057.128906
965.663086	16589.750000
964.530273	16703.035156
963.397461	16798.615234
962.264648	16947.097656
961.130859	16830.841797
959.997070	17082.886719
958.863281	16677.845703
957.729492	16654.296875
956.594727	16696.863281
955.459961	16723.988281
954.325195	16638.765625
953.189453	16844.263672
952.053711	16668.779297
950.917969	16539.597656
949.782227	16683.357422
948.646484	16864.453125
947.509766	16662.718750
946.373047	16546.843750
945.235352	16734.441406
944.098633	16699.931641
942.960938	16636.867188
941.823242	16659.519531
940.685547	16752.458984
939.546875	16836.568359
938.408203	17170.958984
937.269531	16848.806641
936.129883	17115.003906
934.991211	17166.037109
933.851563	17228.015625
932.711914	17318.476563
931.571289	17318.992188
930.431641	17725.087891
929.291016	17690.437500
928.149414	17701.820313
927.008789	17533.544922
925.867188	17628.189453
924.725586	17760.017578
923.583984	17265.617188
922.441406	17268.320313
921.299805	17071.873047
920.157227	17159.941406
919.013672	16714.236328
917.871094	16749.857422
916.727539	16396.271484
915.583984	16431.943359
914.439453	16640.251953
913.295898	16398.359375
912.151367	16272.350586
911.006836	16227.205078
909.861328	16110.022461
908.716797	16195.913086
907.571289	16166.088867
906.424805	16136.277344
905.279297	16003.943359
904.132813	16115.948242
902.986328	16129.774414
901.839844	16014.967773
900.692383	16087.657227
899.545898	16027.386719
898.398438	15866.924805
897.250000	16222.751953
896.102539	16195.152344
894.954102	15943.316406
893.805664	16059.449219
892.656250	16190.761719
891.507813	16224.107422
890.358398	16039.916016
889.208984	16158.091797
888.058594	15893.549805
886.908203	15968.227539
885.758789	15882.050781
884.607422	16087.059570
883.457031	15955.274414
882.305664	15925.620117
881.154297	15783.071289
880.002930	16113.819336
878.850586	15841.070313
877.698242	15922.124023
876.545898	15799.222656
875.393555	15795.661133
874.240234	15631.642578
873.086914	15621.614258
871.933594	15587.748047
870.780273	15621.069336
869.625977	15654.375000
868.471680	15769.967773
867.317383	15528.212891
866.162109	15628.625000
865.007813	15484.408203
863.852539	15634.553711
862.696289	15512.032227
861.541016	15521.507813
860.384766	15550.438477
859.228516	15345.860352
858.072266	15599.612305
856.915039	15600.409180
855.757813	15337.619141
854.600586	15608.477539
853.442383	15408.429688
852.285156	15629.488281
851.126953	15625.953125
849.968750	15328.918945
848.809570	15536.895508
847.650391	15546.323242
846.491211	15335.768555
845.332031	15556.536133
844.171875	15589.661133
843.012695	15381.390625
841.851563	15384.372070
840.691406	15587.689453
839.530273	15439.861328
838.369141	15457.895508
837.208008	15568.487305
836.046875	15625.221680
834.884766	15520.547852
833.722656	15446.038086
832.560547	15425.330078
831.397461	15688.467773
830.234375	15495.727539
829.071289	15324.567383
827.908203	15634.818359
826.744141	15502.371094
825.580078	15518.183594
824.416016	15695.040039
823.251953	15644.246094
822.086914	15561.278320
820.921875	15733.708984
819.756836	15584.248047
818.590820	15608.591797
817.425781	15615.768555
816.259766	15777.304688
815.092773	15475.779297
813.926758	15414.401367
812.759766	15462.318359
811.592773	15518.779297
810.424805	15425.306641
809.257813	15464.620117
808.089844	15435.416016
806.920898	15489.686523
805.752930	15424.116211
804.583984	15412.049805
803.415039	15464.146484
802.246094	15599.603516
801.076172	15493.447266
799.906250	15539.074219
798.736328	15512.033203
797.566406	15412.374023
796.395508	15468.662109
795.224609	15659.440430
794.053711	15704.971680
792.881836	15867.861328
791.710938	15815.169922
790.538086	16091.019531
789.366211	16396.601563
788.194336	16800.126953
787.021484	16977.496094
785.848633	17114.291016
784.674805	17172.181641
783.500977	17087.312500
782.327148	17062.115234
781.153320	16962.402344
779.979492	16611.525391
778.804688	16571.552734
777.629883	16510.316406
776.454102	16378.904297
775.279297	16343.260742
774.103516	16260.850586
772.927734	16378.316406
771.750977	16310.811523
770.575195	16472.833984
769.398438	16696.390625
768.220703	16737.179688
767.043945	16875.630859
765.866211	16969.433594
764.688477	17222.382813
763.510742	17644.982422
762.332031	17823.404297
761.153320	18305.058594
759.974609	19051.568359
758.794922	19723.531250
757.616211	20942.050781
756.436523	22179.085938
755.255859	23565.978516
754.076172	26314.226563
752.895508	29020.978516
751.714844	32245.208984
750.533203	35825.687500
749.352539	39565.359375
748.170898	43519.121094
746.988281	46322.476563
745.806641	48335.722656
744.624023	49104.828125
743.441406	48579.921875
742.258789	47653.710938
741.075195	45747.558594
739.891602	44995.632813
738.708008	43977.949219
737.523438	43249.988281
736.339844	42070.625000
735.155273	41653.664063
733.969727	40639.773438
732.785156	38632.789063
731.599609	36213.359375
730.414063	33974.257813
729.227539	31238.689453
728.041992	28546.525391
726.855469	25807.132813
725.667969	23839.998047
724.481445	22073.841797
723.293945	20834.892578
722.106445	19598.617188
720.918945	19089.005859
719.730469	18352.378906
718.541992	18234.566406
717.353516	17900.177734
716.164063	17242.126953
714.975586	17055.271484
713.786133	16822.265625
712.595703	16719.640625
711.406250	16654.875000
710.215820	16506.126953
709.025391	16246.158203
707.833984	16364.183594
706.642578	16503.140625
705.451172	16444.789063
704.259766	16636.109375
703.068359	16479.173828
701.875977	16450.220703
700.683594	16800.732422
699.490234	17304.083984
698.297852	17897.308594
697.104492	18787.744141
695.910156	19200.224609
694.716797	19916.144531
693.522461	20443.316406
692.328125	20545.355469
691.132813	20871.251953
689.938477	20776.486328
688.743164	20217.427734
687.547852	20181.404297
686.351563	19336.318359
685.155273	18821.867188
683.958984	18619.011719
682.762695	18130.027344
681.565430	17802.099609
680.368164	17612.144531
679.170898	17516.224609
677.973633	17508.013672
676.775391	17470.589844
675.577148	17251.671875
674.378906	17116.287109
673.179688	17166.560547
671.980469	17010.406250
670.781250	16968.964844
669.581055	16737.906250
668.381836	16627.791016
667.181641	16515.642578
665.980469	16359.811523
664.780273	16237.364258
663.579102	16135.787109
662.377930	16329.760742
661.175781	16103.374023
659.973633	16130.858398
658.771484	16137.533203
657.569336	16254.395508
656.367188	16161.262695
655.164063	16521.205078
653.960938	16750.087891
652.756836	16997.558594
651.552734	17215.839844
650.348633	17431.943359
649.144531	17697.763672
647.939453	18098.351563
646.735352	18050.599609
645.529297	18052.652344
644.324219	18423.843750
643.118164	18301.406250
641.912109	18133.419922
640.706055	18141.664063
639.499023	18046.306641
638.292969	17573.992188
637.084961	17275.855469
635.877930	17013.052734
634.669922	16667.570313
633.461914	16477.460938
632.253906	16332.957031
631.044922	16054.061523
629.836914	15990.375000
628.626953	15943.256836
627.417969	16086.334961
626.208008	15782.950195
624.998047	15826.821289
623.788086	15895.458984
622.577148	15631.564453
621.366211	15665.113281
620.155273	15496.347656
618.944336	15453.550781
617.732422	15202.377930
616.520508	15213.299805
615.308594	15376.828125
614.095703	15433.062500
612.882813	15285.193359
611.669922	15063.198242
610.457031	15175.094727
609.243164	15212.780273
608.029297	15246.328125
606.815430	14830.997070
605.600586	15049.883789
604.385742	15093.733398
603.170898	15182.829102
601.955078	15405.592773
600.740234	15270.400391
599.524414	15131.158203
598.307617	15382.555664
597.091797	15263.901367
595.875000	15638.431641
594.658203	15396.516602
593.440430	15466.884766
592.222656	15662.469727
591.004883	15621.889648
589.787109	15250.901367
588.568359	15167.344727
587.349609	15194.599609
586.130859	14969.580078
584.912109	15121.942383
583.692383	14878.592773
582.472656	14926.380859
581.251953	15127.820313
580.032227	14999.353516
578.811523	15247.786133
577.589844	15205.346680
576.369141	15476.133789
575.147461	15621.949219
573.925781	15700.172852
572.703125	16236.592773
571.481445	16648.005859
570.258789	16838.394531
569.035156	17143.171875
567.812500	17296.566406
566.588867	17780.906250
565.365234	17987.195313
564.140625	18413.960938
562.916992	18354.558594
561.692383	18615.685547
560.466797	18582.792969
559.242188	18221.400391
558.016602	18125.373047
556.791016	17654.115234
555.564453	17264.638672
554.337891	16836.609375
553.111328	16467.880859
551.884766	16162.491211
550.657227	15500.738281
549.429688	15313.838867
548.202148	15127.026367
546.974609	15117.408203
545.746094	14995.854492
544.517578	14929.294922
543.288086	14864.800781
542.058594	14771.861328
540.829102	14768.432617
539.599609	14714.181641
538.370117	14655.890625
537.139648	14654.520508
535.909180	14492.662109
534.677734	14479.142578
533.446289	14701.172852
532.214844	14626.707031
530.983398	14430.499023
529.750977	14561.071289
528.519531	14458.286133
527.286133	14424.506836
526.053711	14402.908203
524.820313	14571.880859
523.586914	14467.159180
522.353516	14520.536133
521.119141	14440.183594
519.884766	14570.504883
518.650391	14441.578125
517.415039	14638.643555
516.179688	14491.542969
514.944336	14291.899414
513.708984	14361.410156
