#Wave		#Intensity
1585.210938	3626.581787
1584.209961	3666.544189
1583.208984	3755.681152
1582.208008	3522.718262
1581.206055	3739.148438
1580.204102	3708.427002
1579.202148	3645.282227
1578.200195	3557.218018
1577.198242	3678.688477
1576.195313	3670.446045
1575.192383	3659.713623
1574.189453	3773.609619
1573.186523	3643.246094
1572.182617	3470.581787
1571.178711	3557.045410
1570.174805	3643.473145
1569.170898	3615.329834
1568.166992	3584.708496
1567.162109	3611.343506
1566.158203	3573.270508
1565.153320	3642.189941
1564.147461	3691.181885
1563.142578	3603.379395
1562.136719	3577.770508
1561.130859	3490.027344
1560.125000	3566.347900
1559.119141	3612.819580
1558.113281	3562.386719
1557.106445	3521.909668
1556.099609	3595.676514
1555.092773	3560.174316
1554.084961	3576.812500
1553.078125	3551.255371
1552.070313	3600.142822
1551.062500	3482.807861
1550.054688	3551.530029
1549.045898	3449.130859
1548.038086	3572.371338
1547.029297	3440.267090
1546.020508	3583.282471
1545.011719	3473.528320
1544.001953	3475.286377
1542.992188	3526.573730
1541.982422	3520.891602
1540.972656	3502.834229
1539.962891	3440.234131
1538.952148	3558.296875
1537.942383	3458.601563
1536.931641	3450.465088
1535.919922	3558.560059
1534.909180	3535.571533
1533.897461	3448.322510
1532.886719	3501.979248
1531.874023	3459.249023
1530.862305	3525.233154
1529.850586	3430.648193
1528.837891	3400.305664
1527.825195	3473.666992
1526.812500	3433.454346
1525.799805	3420.404297
1524.786133	3520.855957
1523.772461	3441.189209
1522.758789	3497.201416
1521.745117	3457.024658
1520.731445	3446.447754
1519.716797	3487.635010
1518.702148	3449.949219
1517.687500	3478.799561
1516.672852	3448.520508
1515.657227	3548.777588
1514.642578	3506.185303
1513.626953	3527.614502
1512.610352	3499.810791
1511.594727	3543.378174
1510.579102	3481.139893
1509.562500	3522.233154
1508.545898	3437.892578
1507.529297	3535.526123
1506.511719	3603.621582
1505.494141	3445.587158
1504.477539	3459.616211
1503.458984	3456.442871
1502.441406	3394.324463
1501.423828	3536.045410
1500.405273	3456.750244
1499.386719	3468.306885
1498.368164	3465.134277
1497.348633	3520.848145
1496.330078	3333.687256
1495.310547	3526.746826
1494.291016	3450.003174
1493.271484	3459.094482
1492.250977	3527.005859
1491.231445	3511.572021
1490.210938	3442.244385
1489.190430	3492.970215
1488.168945	3531.429932
1487.148438	3474.383057
1486.126953	3451.631348
1485.105469	3438.678467
1484.083984	3486.904785
1483.061523	3574.253906
1482.040039	3431.648682
1481.017578	3504.300049
1479.995117	3518.243164
1478.971680	3475.958496
1477.949219	3467.906006
1476.925781	3516.055176
1475.902344	3495.782715
1474.878906	3622.062012
1473.855469	3496.774902
1472.831055	3610.794434
1471.806641	3505.088135
1470.782227	3631.260010
1469.757813	3554.871094
1468.733398	3539.497559
1467.708008	3565.590576
1466.682617	3613.617676
1465.657227	3581.176270
1464.631836	3563.371826
1463.605469	3599.184814
1462.579102	3513.166992
1461.552734	3614.741943
1460.526367	3621.297607
1459.500000	3640.024414
1458.472656	3566.239990
1457.445313	3628.778320
1456.417969	3630.458252
1455.390625	3610.242432
1454.362305	3704.351563
1453.334961	3662.242432
1452.306641	3666.344482
1451.277344	3580.506836
1450.249023	3674.543213
1449.219727	3593.598389
1448.191406	3704.597168
1447.162109	3507.099854
1446.131836	3622.926758
1445.102539	3714.427734
1444.072266	3691.811035
1443.041992	3630.375977
1442.011719	3653.884033
1440.981445	3621.590576
1439.950195	3732.397461
1438.918945	3702.525391
1437.887695	3704.180176
1436.856445	3691.291748
1435.825195	3668.715820
1434.792969	3789.087646
1433.760742	3715.634277
1432.728516	3661.584717
1431.696289	3668.086914
1430.663086	3725.420410
1429.629883	3531.031982
1428.596680	3467.386230
1427.563477	3565.850830
1426.530273	3461.106445
1425.496094	3516.004150
1424.461914	3529.778809
1423.427734	3495.204102
1422.393555	3487.227051
1421.358398	3573.482666
1420.323242	3430.215820
1419.288086	3499.541016
1418.252930	3489.154053
1417.217773	3483.599609
1416.181641	3497.356201
1415.145508	3518.346191
1414.109375	3548.977783
1413.073242	3420.395996
1412.036133	3438.976807
1411.000000	3498.538574
1409.962891	3500.220459
1408.924805	3470.570068
1407.887695	3518.039307
1406.849609	3377.577637
1405.812500	3511.756348
1404.773438	3561.594727
1403.735352	3635.488281
1402.697266	3586.588623
1401.658203	3506.423096
1400.619141	3469.600586
1399.580078	3548.261963
1398.540039	3453.723389
1397.500977	3570.828369
1396.460938	3495.556885
1395.420898	3576.550049
1394.380859	3566.191650
1393.339844	3421.292236
1392.298828	3509.455811
1391.257813	3352.620117
1390.216797	3349.519531
1389.175781	3408.835205
1388.133789	3367.322266
1387.091797	3354.621582
1386.049805	3351.522217
1385.007813	3350.822510
1383.964844	3486.813721
1382.922852	3416.555664
1381.879883	3379.885986
1380.835938	3439.094482
1379.792969	3469.525146
1378.749023	3495.151855
1377.706055	3484.841309
1376.661133	3302.125000
1375.617188	3409.168701
1374.573242	3475.476318
1373.528320	3450.819092
1372.483398	3445.312744
1371.438477	3341.732910
1370.392578	3448.655273
1369.347656	3390.548340
1368.301758	3447.213135
1367.255859	3322.208008
1366.208984	3598.704102
1365.163086	3593.173096
1364.116211	3539.872803
1363.069336	3496.146729
1362.022461	3366.485840
1360.974609	3372.942383
1359.927734	3529.750488
1358.879883	3435.954590
1357.832031	3492.489014
1356.783203	3382.044189
1355.735352	3483.872803
1354.686523	3406.852539
1353.637695	3303.645020
1352.588867	3460.236328
1351.539063	3461.893799
1350.490234	3473.078857
1349.440430	3498.548584
1348.390625	3338.282471
1347.339844	3499.462646
1346.290039	3622.493652
1345.239258	3421.848633
1344.188477	3490.124756
1343.137695	3648.758301
1342.085938	3460.123779
1341.034180	3599.675781
1339.982422	3620.314453
1338.930664	3650.450684
1337.878906	3587.906006
1336.826172	3546.767822
1335.773438	3762.157471
1334.720703	3645.012207
1333.667969	3613.383545
1332.614258	3702.821777
1331.561523	3573.896484
1330.507813	3592.126709
1329.453125	3643.558594
1328.399414	3576.387939
1327.344727	3698.934326
1326.290039	3702.898193
1325.235352	3616.795898
1324.180664	3758.212646
1323.125000	3714.778320
1322.070313	3652.413086
1321.014648	3862.407959
1319.958008	3702.964844
1318.902344	3766.098389
1317.845703	3649.341309
1316.789063	3667.502441
1315.732422	3688.021484
1314.675781	3609.195801
1313.618164	3601.342285
1312.560547	3647.866943
1311.502930	3642.371582
1310.445313	3646.331055
1309.386719	3619.573975
1308.329102	3604.638672
1307.270508	3592.071045
1306.210938	3699.927246
1305.152344	3531.541016
1304.092773	3481.233643
1303.033203	3508.815674
1301.973633	3510.435303
1300.914063	3580.455078
1299.853516	3433.493652
1298.792969	3548.295410
1297.732422	3514.546631
1296.671875	3412.468018
1295.611328	3496.570557
1294.549805	3455.786133
1293.488281	3372.625244
1292.426758	3383.686768
1291.364258	3430.056396
1290.302734	3321.062256
1289.240234	3261.531006
1288.177734	3303.190918
1287.114258	3361.298096
1286.051758	3348.829590
1284.988281	3324.609863
1283.924805	3312.153809
1282.861328	3323.204834
1281.796875	3296.655518
1280.732422	3305.355469
1279.667969	3450.277344
1278.603516	3343.877441
1277.539063	3352.561035
1276.473633	3358.893555
1275.408203	3358.183105
1274.342773	3350.433594
1273.277344	3300.463867
1272.210938	3356.051270
1271.145508	3367.064697
1270.079102	3251.483154
1269.011719	3302.357422
1267.945313	3332.120361
1266.877930	3242.389404
1265.810547	3241.702393
1264.743164	3264.433350
1263.674805	3319.932129
1262.607422	3178.781494
1261.539063	3341.927734
1260.470703	3331.859863
1259.401367	3279.688965
1258.333008	3328.108154
1257.263672	3247.899902
1256.194336	3322.020508
1255.125000	3211.462158
1254.054688	3222.464600
1252.985352	3233.462158
1251.915039	3186.059326
1250.843750	3271.790039
1249.773438	3317.791748
1248.702148	3279.737793
1247.630859	3262.704102
1246.559570	3299.344482
1245.488281	3256.652100
1244.416016	3251.295410
1243.343750	3259.931641
1242.271484	3238.256348
1241.199219	3288.846924
1240.125977	3255.522217
1239.053711	3240.850586
1237.980469	3181.926758
1236.906250	3248.787354
1235.833008	3255.081299
1234.758789	3175.240234
1233.684570	3251.368164
1232.610352	3176.215332
1231.536133	3201.129395
1230.460938	3158.581299
1229.385742	3185.813477
1228.310547	3245.582520
1227.235352	3226.295654
1226.159180	3130.327148
1225.083008	3190.069092
1224.006836	3273.014648
1222.930664	3344.312500
1221.853516	3208.926514
1220.777344	3268.599854
1219.700195	3293.432861
1218.622070	3302.012207
1217.544922	3196.909180
1216.466797	3196.226807
1215.388672	3202.501465
1214.310547	3296.875244
1213.232422	3171.000244
1212.153320	3130.925781
1211.074219	3241.472656
1209.995117	3356.604980
1208.916016	3184.503418
1207.835938	3195.400391
1206.755859	3139.157227
1205.675781	3152.373047
1204.595703	3202.607666
1203.514648	3225.057861
1202.434570	3092.525146
1201.353516	3135.801758
1200.271484	3195.243896
1199.190430	3120.590576
1198.108398	3186.943359
1197.026367	3163.155518
1195.944336	3100.106445
1194.862305	3129.466797
1193.779297	3168.050781
1192.696289	3084.263184
1191.613281	3162.077393
1190.530273	3048.327881
1189.446289	3142.265381
1188.362305	3141.591797
1187.278320	3115.551025
1186.194336	3232.468994
1185.109375	3045.061279
1184.024414	3214.950195
1182.939453	3110.574463
1181.854492	3096.085205
1180.768555	3157.605469
1179.683594	3097.058838
1178.597656	3130.926025
1177.510742	3068.108887
1176.424805	3076.654541
1175.337891	3154.216309
1174.250977	3102.934814
1173.164063	3099.968262
1172.077148	2970.547607
1170.989258	2979.103760
1169.901367	3120.951416
1168.813477	3009.990723
1167.724609	3059.881836
1166.636719	3112.047852
1165.547852	3138.933105
1164.458984	3009.696777
1163.369141	3011.344238
1162.280273	3081.832764
1161.190430	3067.403809
1160.100586	3050.687012
1159.010742	3118.827637
1157.919922	3104.399170
1156.829102	3002.870361
1155.738281	3135.145996
1154.647461	3113.848877
1153.555664	3115.468262
1152.464844	3101.054688
1151.373047	2935.520508
1150.280273	3065.377686
1149.188477	3023.517822
1148.095703	3141.857910
1147.002930	3067.969482
1145.910156	3049.008545
1144.817383	2927.147949
1143.723633	3063.696533
1142.629883	3026.461182
1141.536133	2993.812500
1140.441406	3002.305176
1139.347656	3056.481201
1138.252930	3147.175537
1137.158203	3050.593262
1136.062500	2967.749756
1134.967773	3021.885498
1133.872070	3037.205078
1132.776367	3077.613281
1131.679688	3118.003906
1130.583984	3162.937500
1129.487305	3027.737305
1128.390625	3090.906006
1127.292969	3103.910400
1126.196289	3050.833984
1125.098633	3184.572021
1124.000977	3190.714600
1122.903320	3060.236328
1121.804688	3059.573242
1120.706055	3070.289795
1119.607422	3060.522461
1118.508789	3041.658691
1117.409180	2968.215332
1116.310547	3044.887451
1115.210938	3110.158691
1114.110352	3082.207520
1113.010742	3036.088135
1111.910156	3114.950195
1110.809570	3059.757080
1109.708984	3097.700195
1108.607422	3037.993164
1107.506836	3032.793213
1106.405273	3072.986328
1105.303711	3033.744385
1104.201172	3017.204834
1103.098633	2959.846924
1101.996094	2975.076416
1100.893555	2960.826904
1099.791016	3046.313721
1098.687500	3018.457764
1097.583984	3069.910156
1096.480469	3071.507080
1095.376953	3073.103027
1094.272461	3138.093994
1093.167969	2947.264648
1092.063477	3032.622559
1090.958008	3013.860596
1089.853516	3049.398682
1088.748047	3046.472412
1087.642578	3007.368408
1086.536133	3008.973389
1085.430664	2987.975586
1084.324219	3034.777832
1083.217773	2952.784424
1082.110352	3042.488770
1081.003906	2994.402344
1079.896484	3086.315674
1078.789063	3085.641846
1077.680664	3015.009277
1076.573242	3000.813477
1075.464844	2975.344727
1074.356445	2979.205322
1073.247070	3071.000000
1072.138672	3052.294678
1071.029297	3040.358643
1069.919922	3055.467041
1068.809570	3009.743164
1067.700195	2973.047852
1066.589844	2970.145752
1065.479492	3088.816162
1064.368164	2977.849609
1063.257813	2979.448242
1062.146484	3086.788818
1061.035156	3023.131104
1059.922852	3053.953125
1058.811523	3035.297363
1057.699219	2989.675049
1056.586914	2921.598633
1055.473633	2979.377441
1054.361328	3077.566162
1053.248047	3049.940674
1052.134766	2959.455322
1051.021484	3046.358154
1049.907227	2982.846191
1048.792969	2887.946289
1047.678711	2945.642334
1046.564453	2980.883057
1045.449219	2966.774170
1044.333984	2916.799561
1043.218750	3061.854980
1042.103516	3166.508789
1040.987305	2935.042725
1039.871094	3039.677734
1038.754883	2965.106201
1037.638672	3020.429688
1036.521484	3017.527344
1035.404297	2994.483643
1034.287109	3020.675537
1033.169922	3017.774170
1032.051758	3046.185547
1030.933594	2960.544922
1029.815430	2975.542480
1028.697266	3010.648682
1027.578125	3072.554443
1026.458984	2991.450439
1025.339844	3042.164551
1024.220703	2987.899902
1023.100586	3190.409668
1021.980469	2986.583252
1020.860352	2936.829102
1019.740234	3078.974854
1018.619141	2964.532959
1017.498047	3086.537842
1016.376953	2911.943359
1015.255859	3020.530518
1014.133789	3010.949219
1013.011719	3008.056641
1011.889648	3009.620361
1010.767578	2908.731689
1009.644531	3084.000000
1008.521484	2960.876709
1007.398438	2986.931641
1006.274414	2999.623047
1005.151367	2938.892090
1004.027344	2909.327393
1002.902344	2955.383301
1001.778320	2919.157715
1000.653320	2907.398193
999.528320	2906.755127
998.403320	2926.108398
997.278320	2985.436279
996.152344	2902.605713
995.026367	2928.607178
993.900391	2907.980225
992.773438	3018.303467
991.646484	2875.628906
990.519531	2866.118408
989.392578	2916.494629
988.265625	2944.674316
987.137695	2959.539795
986.009766	2985.480713
984.881836	3015.841553
983.752930	2962.002930
982.624023	2930.337158
981.495117	2920.829590
980.366211	2977.743896
979.236328	2873.051270
978.106445	2998.552002
976.976563	2916.025391
975.846680	2851.230957
974.715820	3012.035889
973.585938	2960.514160
972.454102	2986.382568
971.323242	2941.519043
970.191406	3035.874512
969.060547	3008.691650
967.927734	2935.141113
966.795898	3102.299805
965.663086	2977.987305
964.530273	3036.915527
963.397461	3060.512207
962.264648	2916.436279
961.130859	3059.150391
959.997070	3091.546143
958.863281	3022.515137
957.729492	3059.312256
956.594727	2999.133057
955.459961	3040.324707
954.325195	3090.308105
953.189453	2970.703369
952.053711	2983.251465
950.917969	3015.604248
949.782227	2979.720947
948.646484	2937.253174
947.509766	3033.384766
946.373047	2916.150146
945.235352	2930.890869
944.098633	2928.038574
942.960938	2920.791992
941.823242	2946.507080
940.685547	2959.029785
939.546875	3017.668457
938.408203	2933.555176
937.269531	2906.556396
936.129883	2901.517578
934.991211	3041.304688
933.851563	2985.779785
932.711914	2851.319824
931.571289	3015.144775
930.431641	2928.969238
929.291016	2948.041016
928.149414	2894.789063
927.008789	2975.203613
925.867188	2970.157227
924.725586	3070.227539
923.583984	3006.047852
922.441406	2845.584473
921.299805	2978.440918
920.157227	2936.203369
919.013672	2955.232666
917.871094	2943.635986
916.727539	2986.705566
915.583984	2937.945068
914.439453	2889.206055
913.295898	2943.183105
912.151367	2898.833252
911.006836	2920.023193
909.861328	3028.544434
908.716797	2977.655518
907.571289	2963.892090
906.424805	2906.493652
905.279297	2971.288330
904.132813	3007.699463
902.986328	3015.746582
901.839844	2934.406006
900.692383	2986.057617
899.545898	2885.147461
898.398438	2858.355957
897.250000	3021.073730
896.102539	2911.512451
894.954102	3002.298828
893.805664	2925.440430
892.656250	3024.886963
891.507813	2967.638672
890.358398	2995.248779
889.208984	3031.545166
888.058594	3026.514648
886.908203	2947.579102
885.758789	2936.049561
884.607422	2994.052979
883.457031	2904.316162
882.305664	2968.815430
881.154297	3031.114014
880.002930	2956.624268
878.850586	2945.106445
877.698242	2922.744873
876.545898	2958.964600
875.393555	2919.258545
874.240234	2961.967529
873.086914	2850.738770
871.933594	2954.129883
870.780273	2981.633057
869.625977	2970.128418
868.471680	2783.190186
867.317383	2944.968506
866.162109	2864.201660
865.007813	2934.981689
863.852539	2888.875977
862.696289	2912.021729
861.541016	2883.245361
860.384766	2921.519043
859.228516	2905.724854
858.072266	2840.223145
856.915039	2934.666260
855.757813	2888.631836
854.600586	2864.218262
853.442383	2898.123779
852.285156	2962.240234
851.126953	2842.848633
849.968750	2863.786377
848.809570	2850.192871
847.650391	2985.446289
846.491211	2885.565918
845.332031	2893.537354
844.171875	2871.325684
843.012695	2870.675781
841.851563	2936.820557
840.691406	2843.525391
839.530273	2793.346436
838.369141	2887.454834
837.208008	2893.258789
836.046875	2939.952148
834.884766	2831.698486
833.722656	2893.443115
832.560547	2847.620850
831.397461	2827.622803
830.234375	2919.422607
829.071289	2804.847168
827.908203	2821.401367
826.744141	2764.904541
825.580078	2783.607910
824.416016	2821.628418
823.251953	2863.925537
822.086914	2865.421631
820.921875	2952.752686
819.756836	2834.084717
818.590820	2878.484375
817.425781	2860.675049
816.259766	2834.297852
815.092773	2844.371094
813.926758	2809.437012
812.759766	2894.497803
811.592773	2829.580078
810.424805	2747.559326
809.257813	2779.049805
808.089844	2786.979980
806.920898	2752.105225
805.752930	2877.713379
804.583984	2838.555176
803.415039	2792.999023
802.246094	2749.601318
801.076172	2815.241455
799.906250	2895.811523
798.736328	2790.456543
797.566406	2819.727539
796.395508	2746.472412
795.224609	2826.983887
794.053711	2849.821533
792.881836	2787.280029
791.710938	2827.185547
790.538086	2841.474121
789.366211	2879.215820
788.194336	2769.813965
787.021484	2803.290771
785.848633	2866.590332
784.674805	2885.114014
783.500977	2754.506104
782.327148	2845.460693
781.153320	2829.906006
779.979492	2842.033447
778.804688	2781.790283
777.629883	2834.352783
776.454102	2748.609375
775.279297	2760.743408
774.103516	2832.411865
772.927734	2761.608643
771.750977	2818.365479
770.575195	2781.596924
769.398438	2704.479736
768.220703	2750.589844
767.043945	2783.937744
765.866211	2840.623291
764.688477	2833.606445
763.510742	2811.738037
762.332031	2851.405029
761.153320	2778.635742
759.974609	2822.533203
758.794922	2804.926514
757.616211	2812.763428
756.436523	2750.664307
755.255859	2779.696289
754.076172	2859.551270
752.895508	2786.895020
751.714844	2906.938477
750.533203	2779.269043
749.352539	2820.957520
748.170898	2835.121826
746.988281	2923.314209
745.806641	2808.445801
744.624023	2932.546875
743.441406	2961.468506
742.258789	2977.696533
741.075195	3021.384277
739.891602	3037.590820
738.708008	3237.523682
737.523438	3190.330811
736.339844	3242.372314
735.155273	3374.586182
733.969727	3648.105957
732.785156	3647.269287
731.599609	3730.791992
730.414063	3820.601807
729.227539	3611.031494
728.041992	3498.503662
726.855469	3411.311768
725.667969	3330.479492
724.481445	3167.546631
723.293945	3114.179688
722.106445	3075.572510
720.918945	3087.494141
719.730469	2971.056885
718.541992	3033.484619
717.353516	2963.382813
716.164063	2916.442627
714.975586	2831.683838
713.786133	2873.067871
712.595703	2838.787842
711.406250	2735.197754
710.215820	2835.382568
709.025391	2771.736816
707.833984	2708.120117
706.642578	2783.055420
705.451172	2776.120605
704.259766	2756.601318
703.068359	2823.083740
701.875977	2696.619873
700.683594	2721.156738
699.490234	2716.338867
698.297852	2784.863770
697.104492	2725.563721
695.910156	2718.652832
694.716797	2713.839111
693.522461	2719.495117
692.328125	2857.010254
691.132813	2707.780273
689.938477	2763.643066
688.743164	2712.808105
687.547852	2808.374756
686.351563	2755.461914
685.155273	2809.171387
683.958984	2689.412598
682.762695	2774.449951
681.565430	2744.568848
680.368164	2766.906738
679.170898	2739.128418
677.973633	2771.893311
676.775391	2729.518799
675.577148	2762.270264
674.378906	2742.861084
673.179688	2815.215820
671.980469	2793.718018
670.781250	2751.385986
669.581055	2804.932861
668.381836	2835.537109
667.181641	2824.468506
665.980469	2832.146729
664.780273	2821.083252
663.579102	2922.425781
662.377930	2898.860352
661.175781	2883.627441
659.973633	2897.522461
658.771484	2957.161377
657.569336	2941.925049
656.367188	2928.774170
655.164063	2938.488525
653.960938	2875.480225
652.756836	2957.903564
651.552734	2982.140869
650.348633	2917.089111
649.144531	2980.763428
647.939453	2830.656006
646.735352	2902.619385
645.529297	2974.549561
644.324219	2922.016602
643.118164	2857.067871
641.912109	2881.281982
640.706055	2837.095947
639.499023	2869.590576
638.292969	2897.927490
637.084961	2793.709961
635.877930	2828.262207
634.669922	2755.158691
633.461914	2847.649658
632.253906	2863.543457
631.044922	2875.292480
629.836914	2901.512695
628.626953	2774.718018
627.417969	2807.150146
626.208008	2833.367188
624.998047	2876.101318
623.788086	2776.282959
622.577148	2790.096924
621.366211	2814.228271
620.155273	2892.018555
618.944336	2804.670898
617.732422	2826.718018
616.520508	2786.870117
615.308594	2806.848633
614.095703	2812.384521
612.882813	2747.830322
611.669922	2794.595215
610.457031	2870.184326
609.243164	2758.281982
608.029297	2691.739990
606.815430	2738.473877
605.600586	2686.376465
604.385742	2731.031494
603.170898	2750.974609
601.955078	2787.365234
600.740234	2667.435547
599.524414	2705.884521
598.307617	2734.036865
597.091797	2667.637451
595.875000	2695.785400
594.658203	2744.462646
593.440430	2717.127686
592.222656	2741.137451
591.004883	2713.815674
589.787109	2754.233643
588.568359	2716.661865
587.349609	2736.545898
586.130859	2725.657227
584.912109	2612.251465
583.692383	2652.645264
582.472656	2709.415771
581.251953	2731.326660
580.032227	2669.237549
578.811523	2764.877441
577.589844	2710.999023
576.369141	2706.276367
575.147461	2674.949219
573.925781	2678.421387
572.703125	2663.480469
571.481445	2703.766846
570.258789	2725.631836
569.035156	2645.273682
567.812500	2710.061279
566.588867	2662.436523
565.365234	2766.003662
564.140625	2730.641846
562.916992	2709.589355
561.692383	2725.292236
560.466797	2747.110352
559.242188	2807.687012
558.016602	2711.155762
556.791016	2779.870605
555.564453	2677.273193
554.337891	2768.387939
553.111328	2735.135742
551.884766	2809.893555
550.657227	2784.795410
549.429688	2733.232178
548.202148	2822.191162
546.974609	2758.428223
545.746094	2788.317139
544.517578	2803.948242
543.288086	2825.675049
542.058594	2794.511475
540.829102	2804.029785
539.599609	2807.444580
538.370117	2849.474121
537.139648	2820.365234
535.909180	2772.986328
534.677734	2733.753174
533.446289	2891.501221
532.214844	2831.957764
530.983398	2871.892578
529.750977	2816.439209
528.519531	2815.785400
527.286133	2809.046875
526.053711	2798.256104
524.820313	2838.151611
523.586914	2865.867432
522.353516	2994.885986
521.119141	3071.172607
519.884766	3050.205811
518.650391	2992.800293
517.415039	2779.540527
516.179688	2912.476318
514.944336	2843.001465
513.708984	2830.203125
