#Wave		#Intensity
1585.210938	22778.531250
1584.209961	22761.046875
1583.208984	22701.394531
1582.208008	22769.091797
1581.206055	22956.574219
1580.204102	22467.677734
1579.202148	22695.062500
1578.200195	22845.023438
1577.198242	23077.222656
1576.195313	22661.013672
1575.192383	22706.179688
1574.189453	22606.761719
1573.186523	22400.230469
1572.182617	22560.027344
1571.178711	22286.333984
1570.174805	22540.720703
1569.170898	22344.332031
1568.166992	22635.939453
1567.162109	22327.611328
1566.158203	22459.845703
1565.153320	22422.853516
1564.147461	22395.824219
1563.142578	22453.355469
1562.136719	22339.310547
1561.130859	22528.574219
1560.125000	22402.130859
1559.119141	22531.669922
1558.113281	22892.185547
1557.106445	23279.873047
1556.099609	23265.119141
1555.092773	23508.572266
1554.084961	23799.082031
1553.078125	24332.675781
1552.070313	24352.449219
1551.062500	24719.501953
1550.054688	24954.955078
1549.045898	25512.658203
1548.038086	25829.658203
1547.029297	26434.041016
1546.020508	26802.755859
1545.011719	27225.822266
1544.001953	27794.859375
1542.992188	28472.625000
1541.982422	29028.785156
1540.972656	29758.000000
1539.962891	29793.914063
1538.952148	30304.910156
1537.942383	30659.835938
1536.931641	30863.730469
1535.919922	30934.001953
1534.909180	30554.259766
1533.897461	30288.382813
1532.886719	29869.388672
1531.874023	29878.029297
1530.862305	29288.832031
1529.850586	28645.542969
1528.837891	28113.638672
1527.825195	27498.011719
1526.812500	26964.093750
1525.799805	26553.789063
1524.786133	26160.921875
1523.772461	25491.935547
1522.758789	25059.988281
1521.745117	24736.712891
1520.731445	24194.162109
1519.716797	24016.619141
1518.702148	23819.433594
1517.687500	23883.486328
1516.672852	23824.349609
1515.657227	23720.906250
1514.642578	23922.820313
1513.626953	23447.681641
1512.610352	23496.970703
1511.594727	23706.183594
1510.579102	23565.964844
1509.562500	23428.261719
1508.545898	23575.876953
1507.529297	23561.160156
1506.511719	23605.441406
1505.494141	23472.755859
1504.477539	23411.378906
1503.458984	23529.361328
1502.441406	23576.064453
1501.423828	23558.902344
1500.405273	23374.800781
1499.386719	23112.228516
1498.368164	23154.066406
1497.348633	23497.673828
1496.330078	23384.871094
1495.310547	23380.025391
1494.291016	23335.949219
1493.271484	23225.699219
1492.250977	23328.730469
1491.231445	23429.267578
1490.210938	23262.712891
1489.190430	23118.269531
1488.168945	23160.009766
1487.148438	23532.273438
1486.126953	23331.558594
1485.105469	23576.363281
1484.083984	23639.990234
1483.061523	23847.931641
1482.040039	24072.904297
1481.017578	23999.443359
1479.995117	24080.039063
1478.971680	24515.041016
1477.949219	24710.359375
1476.925781	25017.990234
1475.902344	25430.537109
1474.878906	25855.125000
1473.855469	26250.230469
1472.831055	26645.171875
1471.806641	27140.023438
1470.782227	27729.843750
1469.757813	28202.302734
1468.733398	29118.527344
1467.708008	29663.666016
1466.682617	30330.492188
1465.657227	30858.085938
1464.631836	31621.878906
1463.605469	32702.138672
1462.579102	33569.992188
1461.552734	34547.089844
1460.526367	35382.535156
1459.500000	36529.289063
1458.472656	37239.824219
1457.445313	37813.769531
1456.417969	38728.132813
1455.390625	39072.847656
1454.362305	38804.480469
1453.334961	38947.195313
1452.306641	38292.390625
1451.277344	38070.535156
1450.249023	37107.539063
1449.219727	36040.460938
1448.191406	34879.085938
1447.162109	33999.925781
1446.131836	33116.269531
1445.102539	32303.382813
1444.072266	31677.730469
1443.041992	30501.468750
1442.011719	29803.660156
1440.981445	29285.640625
1439.950195	28442.857422
1438.918945	28131.433594
1437.887695	27943.773438
1436.856445	27344.158203
1435.825195	26706.021484
1434.792969	26635.056641
1433.760742	26457.544922
1432.728516	26166.285156
1431.696289	26177.792969
1430.663086	25605.910156
1429.629883	25615.107422
1428.596680	25244.410156
1427.563477	25086.751953
1426.530273	24873.529297
1425.496094	24440.339844
1424.461914	24070.189453
1423.427734	24357.656250
1422.393555	23746.009766
1421.358398	23567.105469
1420.323242	23702.308594
1419.288086	23540.390625
1418.252930	23492.027344
1417.217773	23487.138672
1416.181641	23383.289063
1415.145508	23376.007813
1414.109375	23421.806641
1413.073242	23532.710938
1412.036133	23674.919922
1411.000000	23696.511719
1409.962891	23985.671875
1408.924805	24308.451172
1407.887695	24693.744141
1406.849609	24854.828125
1405.812500	25300.060547
1404.773438	26258.031250
1403.735352	26608.886719
1402.697266	27012.548828
1401.658203	27134.466797
1400.619141	27768.833984
1399.580078	27991.578125
1398.540039	28182.958984
1397.500977	28198.724609
1396.460938	28228.904297
1395.420898	28061.976563
1394.380859	28269.998047
1393.339844	28211.244141
1392.298828	27681.703125
1391.257813	27572.660156
1390.216797	27427.642578
1389.175781	27597.162109
1388.133789	27661.003906
1387.091797	27691.224609
1386.049805	28100.486328
1385.007813	28137.794922
1383.964844	28352.542969
1382.922852	28639.126953
1381.879883	28489.322266
1380.835938	29489.935547
1379.792969	29989.349609
1378.749023	30268.158203
1377.706055	30580.380859
1376.661133	30818.238281
1375.617188	31187.667969
1374.573242	31229.021484
1373.528320	31772.902344
1372.483398	31651.417969
1371.438477	31630.447266
1370.392578	31485.123047
1369.347656	31751.123047
1368.301758	31842.496094
1367.255859	31972.070313
1366.208984	31716.867188
1365.163086	31382.927734
1364.116211	31579.390625
1363.069336	31510.693359
1362.022461	31883.724609
1360.974609	31924.792969
1359.927734	32156.767578
1358.879883	32114.244141
1357.832031	32417.646484
1356.783203	32389.392578
1355.735352	32506.607422
1354.686523	33195.953125
1353.637695	33329.628906
1352.588867	33789.730469
1351.539063	34397.359375
1350.490234	35135.742188
1349.440430	35811.894531
1348.390625	36840.160156
1347.339844	37518.046875
1346.290039	38421.757813
1345.239258	39734.371094
1344.188477	40480.210938
1343.137695	41373.207031
1342.085938	42161.191406
1341.034180	43101.007813
1339.982422	43947.718750
1338.930664	44314.000000
1337.878906	44991.390625
1336.826172	45312.156250
1335.773438	45245.644531
1334.720703	45810.796875
1333.667969	46012.476563
1332.614258	45713.234375
1331.561523	45606.335938
1330.507813	45508.972656
1329.453125	45103.269531
1328.399414	44548.324219
1327.344727	44090.824219
1326.290039	42905.734375
1325.235352	43081.582031
1324.180664	42100.984375
1323.125000	42094.503906
1322.070313	41737.464844
1321.014648	41638.699219
1319.958008	41367.136719
1318.902344	41273.218750
1317.845703	40774.644531
1316.789063	40299.937500
1315.732422	39834.890625
1314.675781	38920.660156
1313.618164	37881.484375
1312.560547	37102.800781
1311.502930	36461.535156
1310.445313	35482.605469
1309.386719	34761.613281
1308.329102	33495.265625
1307.270508	32711.226563
1306.210938	31892.097656
1305.152344	31380.197266
1304.092773	30490.884766
1303.033203	29856.789063
1301.973633	29046.019531
1300.914063	29009.234375
1299.853516	28338.113281
1298.792969	27895.966797
1297.732422	27984.371094
1296.671875	27504.775391
1295.611328	27098.421875
1294.549805	27038.523438
1293.488281	26705.445313
1292.426758	26725.710938
1291.364258	26524.669922
1290.302734	26542.607422
1289.240234	26435.814453
1288.177734	26820.779297
1287.114258	25994.195313
1286.051758	26353.218750
1284.988281	26476.966797
1283.924805	25660.376953
1282.861328	25857.072266
1281.796875	25926.796875
1280.732422	26355.921875
1279.667969	26200.031250
1278.603516	26072.380859
1277.539063	25876.701172
1276.473633	26047.269531
1275.408203	26492.332031
1274.342773	26456.226563
1273.277344	26347.414063
1272.210938	26402.812500
1271.145508	26521.496094
1270.079102	26551.044922
1269.011719	26594.640625
1267.945313	26185.966797
1266.877930	25992.998047
1265.810547	25739.210938
1264.743164	25483.187500
1263.674805	25100.839844
1262.607422	24777.173828
1261.539063	24816.386719
1260.470703	24366.564453
1259.401367	23907.576172
1258.333008	23923.554688
1257.263672	23801.564453
1256.194336	23539.355469
1255.125000	23200.126953
1254.054688	23092.382813
1252.985352	22783.759766
1251.915039	22475.267578
1250.843750	22344.386719
1249.773438	22384.003906
1248.702148	22099.130859
1247.630859	22064.095703
1246.559570	21954.408203
1245.488281	21863.427734
1244.416016	21718.839844
1243.343750	21772.519531
1242.271484	21660.648438
1241.199219	21455.587891
1240.125977	21427.722656
1239.053711	21236.775391
1237.980469	21372.019531
1236.906250	21213.765625
1235.833008	21442.089844
1234.758789	21318.804688
1233.684570	21214.189453
1232.610352	21065.404297
1231.536133	21379.636719
1230.460938	21261.113281
1229.385742	21242.632813
1228.310547	21266.005859
1227.235352	21373.046875
1226.159180	21326.660156
1225.083008	21236.148438
1224.006836	21631.166016
1222.930664	21310.701172
1221.853516	21329.376953
1220.777344	21631.259766
1219.700195	21826.246094
1218.622070	21605.787109
1217.544922	21963.089844
1216.466797	21905.054688
1215.388672	22266.777344
1214.310547	22408.087891
1213.232422	22523.837891
1212.153320	22507.439453
1211.074219	22991.517578
1209.995117	22933.326172
1208.916016	23055.804688
1207.835938	23368.103516
1206.755859	23057.525391
1205.675781	23223.871094
1204.595703	23075.435547
1203.514648	22977.958984
1202.434570	23320.000000
1201.353516	23058.318359
1200.271484	22822.179688
1199.190430	22949.054688
1198.108398	22786.990234
1197.026367	22530.261719
1195.944336	22513.886719
1194.862305	22485.970703
1193.779297	22358.773438
1192.696289	21855.330078
1191.613281	21786.021484
1190.530273	21543.669922
1189.446289	21269.121094
1188.362305	21446.783203
1187.278320	21163.146484
1186.194336	20718.236328
1185.109375	20734.539063
1184.024414	20508.845703
1182.939453	20393.847656
1181.854492	20216.699219
1180.768555	19993.560547
1179.683594	19943.216797
1178.597656	19918.214844
1177.510742	19867.904297
1176.424805	19518.462891
1175.337891	19413.041016
1174.250977	19480.173828
1173.164063	19298.912109
1172.077148	19494.792969
1170.989258	19336.589844
1169.901367	19160.068359
1168.813477	19126.078125
1167.724609	19239.121094
1166.636719	19189.048828
1165.547852	19455.873047
1164.458984	19610.091797
1163.369141	19376.347656
1162.280273	19590.175781
1161.190430	19670.845703
1160.100586	19808.822266
1159.010742	19900.871094
1157.919922	20309.281250
1156.829102	20087.140625
1155.738281	19986.556641
1154.647461	20445.085938
1153.555664	20408.607422
1152.464844	20115.630859
1151.373047	20122.742188
1150.280273	20326.728516
1149.188477	20214.767578
1148.095703	19915.212891
1147.002930	20075.638672
1145.910156	19844.859375
1144.817383	19886.312500
1143.723633	20012.339844
1142.629883	19788.576172
1141.536133	19608.330078
1140.441406	19658.929688
1139.347656	19282.330078
1138.252930	19230.201172
1137.158203	19431.548828
1136.062500	19130.572266
1134.967773	19117.304688
1133.872070	18951.156250
1132.776367	18905.990234
1131.679688	18810.664063
1130.583984	19164.619141
1129.487305	19089.792969
1128.390625	18983.085938
1127.292969	19031.390625
1126.196289	19100.179688
1125.098633	19130.212891
1124.000977	18939.316406
1122.903320	19024.013672
1121.804688	19090.462891
1120.706055	18817.759766
1119.607422	18979.789063
1118.508789	19125.822266
1117.409180	19030.695313
1116.310547	19217.583984
1115.210938	18906.490234
1114.110352	18909.207031
1113.010742	18896.013672
1111.910156	18841.925781
1110.809570	18942.326172
1109.708984	18533.966797
1108.607422	18509.507813
1107.506836	18607.638672
1106.405273	18621.751953
1105.303711	18517.867188
1104.201172	18400.412109
1103.098633	18287.544922
1101.996094	18156.583984
1100.893555	18107.292969
1099.791016	18069.355469
1098.687500	17782.160156
1097.583984	17955.009766
1096.480469	18000.933594
1095.376953	18089.865234
1094.272461	18208.191406
1093.167969	18041.244141
1092.063477	18182.156250
1090.958008	18049.222656
1089.853516	18303.177734
1088.748047	18446.197266
1087.642578	18313.291016
1086.536133	18856.384766
1085.430664	19100.894531
1084.324219	19225.531250
1083.217773	19546.664063
1082.110352	19976.072266
1081.003906	20064.300781
1079.896484	20443.736328
1078.789063	20450.560547
1077.680664	20545.392578
1076.573242	21057.587891
1075.464844	20807.111328
1074.356445	21012.304688
1073.247070	20852.134766
1072.138672	21185.720703
1071.029297	20921.904297
1069.919922	21029.996094
1068.809570	20574.837891
1067.700195	20613.132813
1066.589844	20288.865234
1065.479492	19861.177734
1064.368164	20012.140625
1063.257813	19715.216797
1062.146484	19400.421875
1061.035156	19016.035156
1059.922852	19113.070313
1058.811523	18832.333984
1057.699219	18553.968750
1056.586914	18498.212891
1055.473633	18260.484375
1054.361328	18326.119141
1053.248047	17951.527344
1052.134766	17835.322266
1051.021484	18098.556641
1049.907227	18130.498047
1048.792969	17801.148438
1047.678711	17752.375000
1046.564453	17912.214844
1045.449219	17912.767578
1044.333984	18072.498047
1043.218750	17916.109375
1042.103516	17679.113281
1040.987305	17894.798828
1039.871094	17904.306641
1038.754883	18140.000000
1037.638672	17918.828125
1036.521484	18154.412109
1035.404297	17922.140625
1034.287109	18050.214844
1033.169922	17925.443359
1032.051758	18098.189453
1030.933594	17830.351563
1029.815430	18291.425781
1028.697266	18211.408203
1027.578125	18321.361328
1026.458984	18165.410156
1025.339844	18230.650391
1024.220703	18266.832031
1023.100586	18291.832031
1021.980469	18278.873047
1020.860352	18513.628906
1019.740234	18556.402344
1018.619141	18378.320313
1017.498047	18389.878906
1016.376953	18194.070313
1015.255859	18475.392578
1014.133789	18128.099609
1013.011719	18155.292969
1011.889648	18452.025391
1010.767578	18381.136719
1009.644531	18314.728516
1008.521484	18310.685547
1007.398438	18284.382813
1006.274414	18262.542969
1005.151367	18282.978516
1004.027344	18403.498047
1002.902344	18119.234375
1001.778320	18524.312500
1000.653320	18395.740234
999.528320	18358.337891
998.403320	18425.373047
997.278320	18365.765625
996.152344	18341.712891
995.026367	18359.857422
993.900391	18433.488281
992.773438	18649.121094
991.646484	18569.550781
990.519531	18816.113281
989.392578	18909.531250
988.265625	19315.554688
987.137695	19138.357422
986.009766	19291.480469
984.881836	19473.339844
983.752930	19579.792969
982.624023	19664.046875
981.495117	19593.251953
980.366211	19250.173828
979.236328	19409.697266
978.106445	19316.871094
976.976563	19312.583984
975.846680	18961.017578
974.715820	18976.710938
973.585938	18578.939453
972.454102	19005.861328
971.323242	18672.347656
970.191406	18650.521484
969.060547	18390.130859
967.927734	18401.501953
966.795898	18386.371094
965.663086	18547.849609
964.530273	18662.906250
963.397461	18784.529297
962.264648	19111.261719
961.130859	19018.785156
959.997070	19166.703125
958.863281	19486.513672
957.729492	19431.482422
956.594727	19588.019531
955.459961	19306.062500
954.325195	18966.958984
953.189453	19039.808594
952.053711	18780.173828
950.917969	18467.824219
949.782227	18171.017578
948.646484	18105.359375
947.509766	18169.513672
946.373047	17960.933594
945.235352	17778.832031
944.098633	17893.570313
942.960938	17731.339844
941.823242	17670.253906
940.685547	17780.541016
939.546875	17769.982422
938.408203	17871.410156
937.269531	17841.076172
936.129883	18109.244141
934.991211	17931.849609
933.851563	18081.408203
932.711914	18259.412109
931.571289	18292.609375
930.431641	18490.214844
929.291016	18694.306641
928.149414	18630.958984
927.008789	18628.982422
925.867188	18839.470703
924.725586	18745.468750
923.583984	18660.265625
922.441406	18745.833984
921.299805	18419.939453
920.157227	18275.787109
919.013672	18059.511719
917.871094	17773.349609
916.727539	17699.400391
915.583984	17555.533203
914.439453	17479.476563
913.295898	17486.484375
912.151367	16953.914063
911.006836	17360.707031
909.861328	17188.681641
908.716797	17058.210938
907.571289	17154.781250
906.424805	16991.640625
905.279297	17068.544922
904.132813	17069.076172
902.986328	17036.896484
901.839844	17120.275391
900.692383	16998.732422
899.545898	17215.003906
898.398438	16978.023438
897.250000	16969.853516
896.102539	16894.177734
894.954102	16764.105469
893.805664	17062.892578
892.656250	16926.308594
891.507813	17170.531250
890.358398	17068.785156
889.208984	16962.734375
888.058594	17217.650391
886.908203	16961.623047
885.758789	16814.371094
884.607422	16562.892578
883.457031	16997.960938
882.305664	16950.697266
881.154297	16781.863281
880.002930	16812.814453
878.850586	16915.373047
877.698242	16924.580078
876.545898	16996.691406
875.393555	16700.068359
874.240234	16796.046875
873.086914	16469.248047
871.933594	16489.375000
870.780273	16570.166016
869.625977	16700.744141
868.471680	16445.730469
867.317383	16509.148438
866.162109	16527.070313
865.007813	16363.171875
863.852539	16515.281250
862.696289	16686.792969
861.541016	16968.537109
860.384766	16672.769531
859.228516	16671.164063
858.072266	16371.271484
856.915039	16661.470703
855.757813	16616.654297
854.600586	16167.929688
853.442383	16626.417969
852.285156	16609.705078
851.126953	16733.304688
849.968750	16798.578125
848.809570	16734.365234
847.650391	16611.937500
846.491211	16588.769531
845.332031	16664.791016
844.171875	16387.251953
843.012695	16456.816406
841.851563	16791.373047
840.691406	16854.351563
839.530273	16542.554688
838.369141	16508.662109
837.208008	16651.306641
836.046875	16761.601563
834.884766	16693.250000
833.722656	17083.146484
832.560547	16892.156250
831.397461	16598.037109
830.234375	17045.730469
829.071289	16869.919922
827.908203	16719.972656
826.744141	17130.806641
825.580078	16736.011719
824.416016	16788.044922
823.251953	16687.625000
822.086914	16773.984375
820.921875	16978.328125
819.756836	16933.708984
818.590820	17080.007813
817.425781	16986.062500
816.259766	16703.490234
815.092773	16733.990234
813.926758	16515.890625
812.759766	16709.244141
811.592773	16703.304688
810.424805	16738.052734
809.257813	16443.068359
808.089844	16591.306641
806.920898	16604.654297
805.752930	16566.642578
804.583984	16727.582031
803.415039	16666.035156
802.246094	16764.871094
801.076172	16707.613281
799.906250	16663.205078
798.736328	16441.472656
797.566406	16493.269531
796.395508	16626.195313
795.224609	16874.361328
794.053711	17133.083984
792.881836	17090.763672
791.710938	17182.886719
790.538086	17708.015625
789.366211	17723.173828
788.194336	18088.015625
787.021484	18548.619141
785.848633	18407.986328
784.674805	18467.712891
783.500977	18420.892578
782.327148	18231.394531
781.153320	17995.136719
779.979492	17935.679688
778.804688	17759.187500
777.629883	17706.193359
776.454102	17427.714844
775.279297	17340.787109
774.103516	17192.228516
772.927734	17426.410156
771.750977	17513.824219
770.575195	17507.699219
769.398438	17446.337891
768.220703	17652.626953
767.043945	17871.562500
765.866211	17963.015625
764.688477	18417.380859
763.510742	18638.109375
762.332031	18975.421875
761.153320	19268.037109
759.974609	19751.369141
758.794922	20454.974609
757.616211	21397.775391
756.436523	22410.074219
755.255859	23815.980469
754.076172	25793.152344
752.895508	27875.302734
751.714844	30676.351563
750.533203	33910.042969
749.352539	37815.222656
748.170898	41566.273438
746.988281	45140.035156
745.806641	47675.906250
744.624023	49618.605469
743.441406	50706.425781
742.258789	50521.515625
741.075195	50176.105469
739.891602	51115.175781
738.708008	51358.996094
737.523438	52339.582031
736.339844	54170.414063
735.155273	55700.722656
733.969727	56559.359375
732.785156	56546.386719
731.599609	54624.785156
730.414063	52035.667969
729.227539	47904.664063
728.041992	43225.488281
726.855469	38917.191406
725.667969	34145.312500
724.481445	30803.548828
723.293945	27713.882813
722.106445	25511.884766
720.918945	23784.437500
719.730469	22558.570313
718.541992	21478.416016
717.353516	20699.511719
716.164063	20028.201172
714.975586	19477.023438
713.786133	19012.269531
712.595703	18745.244141
711.406250	18703.123047
710.215820	18478.294922
709.025391	18213.671875
707.833984	18148.603516
706.642578	17936.646484
705.451172	18098.291016
704.259766	17961.962891
703.068359	18159.181641
701.875977	18134.035156
700.683594	18465.291016
699.490234	18630.814453
698.297852	19422.800781
697.104492	20128.529297
695.910156	20651.708984
694.716797	21183.021484
693.522461	21691.060547
692.328125	22081.654297
691.132813	22388.361328
689.938477	22483.626953
688.743164	22342.494141
687.547852	21720.468750
686.351563	21493.857422
685.155273	21365.587891
683.958984	20746.300781
682.762695	20183.707031
681.565430	19972.273438
680.368164	19708.730469
679.170898	19593.537109
677.973633	19476.308594
676.775391	19179.667969
675.577148	19244.095703
674.378906	19164.568359
673.179688	19076.736328
671.980469	18849.255859
670.781250	18947.044922
669.581055	18600.914063
668.381836	18409.115234
667.181641	18167.414063
665.980469	18173.634766
664.780273	17975.818359
663.579102	17519.984375
662.377930	18073.654297
661.175781	17975.859375
659.973633	17955.070313
658.771484	18067.382813
657.569336	18177.562500
656.367188	18169.208984
655.164063	18285.544922
653.960938	18447.535156
652.756836	18659.302734
651.552734	19028.798828
650.348633	19186.349609
649.144531	19381.189453
647.939453	20055.322266
646.735352	20150.279297
645.529297	20311.568359
644.324219	20298.580078
643.118164	20007.767578
641.912109	20270.542969
640.706055	20321.812500
639.499023	20368.914063
638.292969	19860.849609
637.084961	19717.503906
635.877930	19216.033203
634.669922	19188.820313
633.461914	19140.923828
632.253906	18960.630859
631.044922	18606.660156
629.836914	18678.875000
628.626953	18581.513672
627.417969	18502.798828
626.208008	18709.316406
624.998047	18411.593750
623.788086	18653.150391
622.577148	18359.705078
621.366211	18369.910156
620.155273	18128.271484
618.944336	18060.099609
617.732422	17973.386719
616.520508	17626.798828
615.308594	17478.355469
614.095703	17344.412109
612.882813	17424.914063
611.669922	17288.982422
610.457031	16973.853516
609.243164	16796.886719
608.029297	16584.990234
606.815430	16739.693359
605.600586	16468.208984
604.385742	16542.599609
603.170898	16359.759766
601.955078	16584.308594
600.740234	16533.164063
599.524414	16541.671875
598.307617	16338.440430
597.091797	16538.119141
595.875000	16600.039063
594.658203	16663.982422
593.440430	16690.927734
592.222656	16728.125000
591.004883	16794.044922
589.787109	16767.576172
588.568359	16722.654297
587.349609	16587.490234
586.130859	16526.218750
584.912109	16405.513672
583.692383	16022.468750
582.472656	16512.679688
581.251953	16273.215820
580.032227	16330.899414
578.811523	16519.630859
577.589844	16685.750000
576.369141	16692.115234
575.147461	17230.603516
573.925781	17159.083984
572.703125	17547.876953
571.481445	17693.107422
570.258789	18187.919922
569.035156	18674.322266
567.812500	18962.253906
566.588867	19168.316406
565.365234	19441.695313
564.140625	19743.541016
562.916992	19922.730469
561.692383	20079.380859
560.466797	20246.162109
559.242188	19753.792969
558.016602	19816.529297
556.791016	19351.000000
555.564453	19218.048828
554.337891	18398.160156
553.111328	18324.593750
551.884766	17923.003906
550.657227	17330.105469
549.429688	17067.425781
548.202148	17008.486328
546.974609	16646.250000
545.746094	16674.951172
544.517578	16534.748047
543.288086	16705.863281
542.058594	16370.467773
540.829102	16464.269531
539.599609	16495.007813
538.370117	16275.741211
537.139648	16481.255859
535.909180	16532.279297
534.677734	16323.309570
533.446289	16431.199219
532.214844	16185.806641
530.983398	16052.154297
529.750977	15752.173828
528.519531	15626.796875
527.286133	15572.463867
526.053711	15688.484375
524.820313	15692.951172
523.586914	15721.736328
522.353516	15612.717773
521.119141	15526.033203
519.884766	15564.960938
518.650391	15654.492188
517.415039	15411.974609
516.179688	15365.893555
514.944336	15427.077148
513.708984	15378.988281
