#Wave		#Intensity
2109.224609	4713.807129
2107.712891	4614.569336
2106.201172	4679.715820
2104.687500	4759.713379
2103.175781	4666.122070
2101.662109	4721.300293
2100.150391	4791.324219
2098.636719	4720.912598
2097.123047	4696.772461
2095.607422	4642.923340
2094.093750	4699.697754
2092.578125	4766.350098
2091.064453	4653.118652
2089.548828	4658.714355
2088.033203	4746.773438
2086.517578	4711.122070
2085.000000	4701.863770
2083.484375	4694.257813
2081.966797	4731.148438
2080.449219	4667.522461
2078.931641	4653.339844
2077.414063	4650.691406
2075.894531	4633.226074
2074.376953	4665.151855
2072.857422	4616.420898
2071.337891	4669.727539
2069.818359	4619.371094
2068.298828	4631.536133
2066.777344	4645.339844
2065.257813	4738.050781
2063.736328	4638.413574
2062.214844	4671.926758
2060.693359	4629.850098
2059.171875	4673.206543
2057.648438	4724.755859
2056.126953	4676.126953
2054.603516	4637.368164
2053.080078	4626.526367
2051.556641	4691.167969
2050.033203	4695.083984
2048.507813	4717.039551
2046.984375	4660.275879
2045.458984	4701.902832
2043.933594	4722.204102
2042.408203	4676.946777
2040.882813	4643.177734
2039.355469	4689.686523
2037.830078	4729.625000
2036.302734	4677.855957
2034.775391	4645.752441
2033.248047	4695.494141
2031.718750	4563.587402
2030.191406	4722.933105
2028.662109	4579.627441
2027.134766	4663.680664
2025.605469	4780.395996
2024.076172	4763.028809
2022.544922	4616.569336
2021.015625	4697.274902
2019.484375	4727.308105
2017.955078	4807.955566
2016.423828	4829.788086
2014.892578	4874.465820
2013.359375	4914.228027
2011.828125	4953.973145
2010.294922	4931.708008
2008.761719	4867.045410
2007.230469	4957.326660
2005.695313	4897.577148
2004.162109	4917.722656
2002.628906	4888.970703
2001.093750	4835.790527
1999.558594	4824.986328
1998.023438	4766.957031
1996.488281	4713.836914
1994.953125	4681.902832
1993.417969	4718.339844
1991.880859	4772.661133
1990.343750	4582.926758
1988.806641	4598.216797
1987.269531	4665.538086
1985.732422	4547.484375
1984.193359	4692.811523
1982.656250	4526.047852
1981.117188	4477.965820
1979.578125	4564.734375
1978.039063	4667.707520
1976.500000	4562.793457
1974.958984	4540.719238
1973.417969	4531.638672
1971.878906	4507.957520
1970.337891	4539.447266
1968.796875	4530.372559
1967.253906	4594.278320
1965.712891	4541.418945
1964.169922	4504.791992
1962.626953	4447.112305
1961.083984	4434.825684
1959.541016	4514.882813
1957.998047	4466.955078
1956.455078	4493.535156
1954.910156	4507.151855
1953.365234	4483.535156
1951.820313	4511.712402
1950.275391	4544.731445
1948.730469	4535.679688
1947.183594	4568.679199
1945.638672	4397.937012
1944.091797	4536.027344
1942.544922	4538.297852
1940.998047	4480.780762
1939.449219	4473.368652
1937.902344	4522.490723
1936.353516	4406.879395
1934.804688	4494.742188
1933.255859	4424.381348
1931.707031	4407.305664
1930.158203	4420.893066
1928.607422	4469.963379
1927.058594	4422.246094
1925.507813	4492.256348
1923.957031	4436.493652
1922.406250	4454.895508
1920.853516	4466.843262
1919.302734	4453.008789
1917.750000	4365.086426
1916.197266	4446.292480
1914.644531	4372.898926
1913.091797	4452.458984
1911.539063	4511.062988
1909.984375	4420.002930
1908.431641	4428.719727
1906.876953	4344.148438
1905.322266	4346.445313
1903.767578	4416.263184
1902.210938	4388.004395
1900.656250	4367.791992
1899.099609	4456.840332
1897.542969	4406.102051
1895.986328	4448.531250
1894.429688	4359.281250
1892.873047	4425.781250
1891.314453	4394.351563
1889.755859	4265.053223
1888.199219	4244.900391
1886.640625	4428.455078
1885.080078	4427.519043
1883.521484	4509.952148
1881.960938	4398.397461
1880.402344	4402.275391
1878.841797	4406.151855
1877.281250	4256.244141
1875.720703	4351.437988
1874.158203	4377.739258
1872.597656	4418.437012
1871.035156	4369.486816
1869.472656	4362.162598
1867.910156	4281.247559
1866.347656	4430.698730
1864.783203	4368.993652
1863.220703	4289.726563
1861.656250	4373.541504
1860.091797	4363.028320
1858.527344	4346.128418
1856.962891	4263.737793
1855.396484	4361.861328
1853.832031	4351.358887
1852.265625	4404.720703
1850.699219	4266.520996
1849.132813	4319.877441
1847.566406	4373.211426
1845.998047	4294.125977
1844.431641	4369.769531
1842.863281	4395.952637
1841.294922	4313.723633
1839.726563	4394.096191
1838.156250	4361.298828
1836.587891	4368.343262
1835.017578	4375.384766
1833.449219	4419.049316
1831.878906	4348.063477
1830.306641	4398.082031
1828.736328	4301.666992
1827.166016	4348.491699
1825.593750	4396.887207
1824.021484	4270.314453
1822.449219	4291.673828
1820.876953	4368.666016
1819.304688	4378.869629
1817.730469	4382.712402
1816.158203	4467.579590
1814.583984	4407.864746
1813.009766	4319.589355
1811.435547	4309.150391
1809.859375	4363.800293
1808.285156	4332.724121
1806.708984	4341.329590
1805.132813	4402.282715
1803.556641	4331.565918
1801.980469	4313.208008
1800.404297	4185.464844
1798.826172	4381.129883
1797.248047	4312.061035
1795.671875	4336.500488
1794.093750	4240.541016
1792.513672	4231.726563
1790.935547	4159.580078
1789.355469	4351.834961
1787.777344	4178.398926
1786.197266	4267.712891
1784.617188	4301.616699
1783.035156	4305.453125
1781.455078	4323.520508
1779.873047	4264.107910
1778.292969	4223.689453
1776.710938	4276.530273
1775.128906	4389.390625
1773.544922	4260.506348
1771.962891	4359.107422
1770.378906	4201.860352
1768.794922	4357.265625
1767.212891	4176.409180
1765.626953	4319.129395
1764.042969	4229.864258
1762.458984	4240.012207
1760.873047	4366.857422
1759.287109	4209.839355
1757.701172	4227.866699
1756.115234	4250.613770
1754.529297	4331.652832
1752.941406	4289.777344
1751.355469	4366.047852
1749.767578	4321.032715
1748.179688	4332.714844
1746.591797	4460.871094
1745.001953	4477.238770
1743.414063	4296.925781
1741.824219	4454.895996
1740.234375	4337.572754
1738.644531	4341.372559
1737.054688	4356.174805
1735.462891	4482.563477
1733.873047	4472.187012
1732.281250	4391.117188
1730.689453	4478.148926
1729.097656	4392.400391
1727.505859	4378.910645
1725.912109	4520.830078
1724.320313	4519.873535
1722.726563	4448.309082
1721.132813	4499.135742
1719.539063	4480.931641
1717.945313	4437.645020
1716.349609	4461.789551
1714.755859	4460.845215
1713.160156	4510.047363
1711.564453	4567.062500
1709.968750	4534.767090
1708.371094	4582.355469
1706.775391	4645.581055
1705.177734	4630.508301
1703.580078	4604.486328
1701.982422	4684.878418
1700.384766	4568.118652
1698.787109	4565.586914
1697.187500	4548.982422
1695.587891	4684.037109
1693.990234	4575.190430
1692.390625	4482.018066
1690.789063	4551.377930
1689.189453	4587.903809
1687.587891	4558.819336
1685.988281	4529.747070
1684.386719	4456.975586
1682.785156	4608.987305
1681.181641	4653.262695
1679.580078	4511.865234
1677.976563	4574.859863
1676.373047	4513.070801
1674.769531	4591.628906
1673.166016	4565.714355
1671.562500	4644.227051
1669.957031	4576.242188
1668.353516	4615.773926
1666.748047	4677.093262
1665.142578	4722.814941
1663.537109	4724.926270
1661.929688	4812.642578
1660.324219	4881.647461
1658.716797	4903.948242
1657.109375	4909.128906
1655.501953	5090.040039
1653.894531	5073.410645
1652.285156	5146.949219
1650.677734	5228.226563
1649.068359	5320.346191
1647.458984	5239.986816
1645.849609	5182.958984
1644.240234	5368.199219
1642.628906	5377.925781
1641.019531	5395.408691
1639.408203	5530.825195
1637.796875	5402.423828
1636.185547	5536.229004
1634.572266	5638.959961
1632.960938	5598.997070
1631.347656	5666.015137
1629.734375	5836.846191
1628.121094	5795.315918
1626.507813	5862.248047
1624.894531	5941.542480
1623.279297	5996.025879
1621.664063	6069.064453
1620.048828	6293.766113
1618.433594	6358.971191
1616.818359	6371.541992
1615.203125	6582.111816
1613.585938	6634.840332
1611.968750	6760.219238
1610.351563	6933.468262
1608.734375	6970.630371
1607.117188	6966.054199
1605.498047	7148.416504
1603.878906	7163.882813
1602.261719	7143.824219
1600.640625	7193.250977
1599.021484	7324.467773
1597.402344	7426.305664
1595.781250	7432.436035
1594.162109	7335.207031
1592.541016	7267.322754
1590.919922	7225.680664
1589.296875	7131.639648
1587.675781	6959.031250
1586.052734	7060.791016
1584.429688	6925.246094
1582.806641	6943.791016
1581.183594	6891.487793
1579.560547	6829.968262
1577.935547	6976.285645
1576.312500	6908.617188
1574.687500	7131.788086
1573.062500	6988.734863
1571.435547	7134.891113
1569.810547	7196.410645
1568.183594	7240.992676
1566.558594	7250.202637
1564.931641	7217.917480
1563.304688	7247.100586
1561.675781	7256.302246
1560.048828	7306.963379
1558.419922	7288.509766
1556.791016	7399.008789
1555.162109	7337.569824
1553.533203	7492.507813
1551.904297	7573.743164
1550.273438	7647.274414
1548.642578	7714.639648
1547.011719	7524.416016
1545.380859	7521.270020
1543.750000	7498.203613
1542.119141	7248.394531
1540.486328	7335.683594
1538.853516	7095.204102
1537.220703	7139.615234
1535.587891	7150.330078
1533.955078	6995.749023
1532.320313	7037.091309
1530.685547	7050.878906
1529.052734	7027.952148
1527.416016	6937.752441
1525.781250	6939.319824
1524.146484	6804.850586
1522.509766	6853.817871
1520.873047	6774.425293
1519.236328	6692.011719
1517.599609	6660.029297
1515.962891	6498.278320
1514.324219	6391.550781
1512.687500	6406.964355
1511.048828	6257.577148
1509.410156	6198.260254
1507.771484	6015.426758
1506.130859	5899.765625
1504.492188	5808.547363
1502.851563	5821.014648
1501.210938	5818.237305
1499.570313	5641.773926
1497.927734	5509.559570
1496.287109	5476.391602
1494.644531	5318.385254
1493.001953	5318.761230
1491.359375	5252.171875
1489.716797	5217.563965
1488.074219	5211.875000
1486.429688	5075.386719
1484.785156	5066.688965
1483.140625	5118.805664
1481.496094	5040.183105
1479.851563	5108.998047
1478.207031	4893.673340
1476.560547	5026.286621
1474.914063	4821.702148
1473.267578	4954.272949
1471.621094	4874.267090
1469.972656	4895.978516
1468.326172	4772.016113
1466.677734	4887.793945
1465.029297	4939.820801
1463.380859	4865.967773
1461.732422	4886.139648
1460.082031	4965.414063
1458.431641	5024.954590
1456.783203	5023.866699
1455.132813	5040.956055
1453.480469	5094.382324
1451.830078	5123.560059
1450.177734	5045.250000
1448.527344	5042.644043
1446.875000	5129.309082
1445.220703	5117.608398
1443.568359	5066.589355
1441.916016	5141.095215
1440.261719	5132.421387
1438.607422	5064.805176
1436.953125	4998.729004
1435.298828	4970.450195
1433.642578	4919.526855
1431.988281	4891.276855
1430.332031	4746.784668
1428.675781	4709.526855
1427.019531	4642.101563
1425.361328	4641.093262
1423.705078	4587.288086
1422.046875	4563.668457
1420.388672	4619.973633
1418.730469	4510.429688
1417.072266	4485.333984
1415.412109	4424.084473
1413.753906	4477.356445
1412.093750	4563.740723
1410.433594	4550.700684
1408.773438	4477.444824
1407.111328	4630.000488
1405.451172	4386.707031
1403.789063	4427.878906
1402.126953	4389.308594
1400.464844	4457.531250
1398.802734	4492.645020
1397.138672	4380.426270
1395.474609	4302.822754
1393.812500	4449.136719
1392.146484	4413.614258
1390.482422	4432.176270
1388.818359	4378.653320
1387.152344	4458.765625
1385.486328	4490.812988
1383.820313	4497.334961
1382.154297	4488.851074
1380.488281	4541.869141
1378.820313	4414.907715
1377.154297	4455.922852
1375.486328	4439.958984
1373.818359	4488.443359
1372.148438	4533.909668
1370.480469	4429.556152
1368.810547	4454.047363
1367.140625	4545.907227
1365.470703	4461.079590
1363.800781	4473.573242
1362.130859	4469.600586
1360.458984	4423.740723
1358.787109	4464.650879
1357.115234	4595.264648
1355.443359	4579.307129
1353.771484	4576.808594
1352.097656	4530.973145
1350.423828	4491.133789
1348.751953	4520.022949
1347.076172	4460.788574
1345.402344	4492.657227
1343.728516	4393.149414
1342.052734	4333.980469
1340.376953	4485.221680
1338.701172	4363.403809
1337.025391	4392.273438
1335.347656	4437.532715
1333.671875	4329.220703
1331.994141	4350.625977
1330.316406	4330.297363
1328.638672	4412.773438
1326.960938	4337.329102
1325.281250	4376.581055
1323.601563	4380.083984
1321.921875	4292.787598
1320.242188	4398.989258
1318.562500	4339.995117
1316.880859	4420.851563
1315.201172	4464.492188
1313.519531	4432.284180
1311.837891	4416.441895
1310.154297	4480.860352
1308.472656	4441.239746
1306.789063	4481.854492
1305.105469	4630.871094
1303.421875	4617.970215
1301.738281	4562.021973
1300.054688	4702.015625
1298.369141	4592.652832
1296.683594	4606.473633
1294.998047	4738.947266
1293.312500	4656.339844
1291.626953	4757.608398
1289.939453	4685.408203
1288.253906	4702.154785
1286.566406	4641.850586
1284.878906	4628.973145
1283.189453	4642.757813
1281.501953	4561.776855
1279.812500	4531.161133
1278.123047	4553.836426
1276.433594	4502.520020
1274.744141	4477.853516
1273.052734	4621.800781
1271.363281	4579.374023
1269.671875	4409.830078
1267.980469	4537.437012
1266.289063	4415.261719
1264.595703	4387.689941
1262.904297	4383.762207
1261.210938	4329.628418
1259.517578	4272.565430
1257.824219	4298.185059
1256.128906	4167.368652
1254.435547	4201.851563
1252.740234	4228.943359
1251.044922	4214.730469
1249.349609	4110.586426
1247.652344	4229.070801
1245.957031	4188.338867
1244.259766	4218.348633
1242.562500	4211.517090
1240.865234	4160.506348
1239.167969	4190.500488
1237.468750	4244.034180
1235.769531	4275.467773
1234.072266	4218.600098
1232.371094	4319.166016
1230.671875	4334.381836
1228.972656	4273.126953
1227.271484	4247.181641
1225.570313	4296.207031
1223.869141	4235.000000
1222.167969	4288.412598
1220.464844	4216.952637
1218.763672	4220.416016
1217.060547	4254.708984
1215.357422	4305.132324
1213.654297	4371.675293
1211.949219	4369.230957
1210.246094	4327.182129
1208.541016	4276.353027
1206.835938	4389.758789
1205.130859	4275.905762
1203.423828	4230.982910
1201.718750	4291.574219
1200.011719	4208.580566
1198.304688	4201.779785
1196.597656	4331.153809
1194.888672	4243.813965
1193.181641	4308.723145
1191.472656	4269.713379
1189.763672	4312.643066
1188.054688	4276.573730
1186.343750	4408.679199
1184.634766	4397.456543
1182.923828	4295.619629
1181.212891	4322.419434
1179.501953	4330.214355
1177.791016	4302.951172
1176.078125	4280.080078
1174.365234	4309.777344
1172.652344	4229.989258
1170.939453	4309.299316
1169.226563	4391.491699
1167.511719	4336.534180
1165.798828	4366.183105
1164.083984	4242.729980
1162.369141	4288.419922
1160.652344	4312.229004
1158.937500	4234.037109
1157.220703	4284.066895
1155.503906	4207.372070
1153.787109	4183.127930
1152.070313	4286.994141
1150.351563	4338.420898
1148.632813	4353.447754
1146.916016	4359.739258
1145.195313	4402.386719
1143.476563	4450.831055
1141.757813	4333.528809
1140.037109	4197.385742
1138.316406	4189.172363
1136.595703	4211.469727
1134.875000	4078.349609
1133.152344	3965.618164
1131.429688	4091.023926
1129.708984	4018.979492
1127.984375	3990.499756
1126.261719	4030.218506
1124.539063	3956.784912
1122.814453	3950.089111
1121.089844	3941.946045
1119.365234	3877.277832
1117.640625	3766.266602
1115.914063	3775.554932
1114.187500	3600.883789
1112.462891	3605.860352
1110.734375	3642.686035
1109.007813	3595.540771
1107.281250	3505.001953
1105.552734	3512.887939
1103.824219	3603.219971
1102.095703	3514.186035
1100.367188	3496.038330
1098.636719	3587.757324
1096.908203	3453.985840
1095.177734	3480.653320
1093.447266	3433.637695
1091.714844	3500.734619
1089.984375	3452.291260
1088.251953	3399.538818
1086.519531	3443.505371
1084.787109	3402.321289
1083.054688	3459.249512
1081.320313	3516.151367
1079.585938	3412.976074
1077.851563	3462.654053
1076.117188	3362.419678
1074.382813	3475.486084
1072.648438	3499.184326
1070.912109	3406.210205
1069.175781	3474.550537
1067.439453	3446.405762
1065.701172	3432.666504
1063.964844	3411.738281
1062.226563	3503.031250
1060.488281	3470.589600
1058.750000	3396.461426
1057.011719	3395.686035
1055.271484	3361.852539
1053.531250	3412.815674
1051.791016	3479.558350
1050.050781	3343.749268
1048.310547	3420.528564
1046.568359	3406.825439
1044.826172	3414.658447
1043.083984	3346.432129
1041.341797	3364.317383
1039.599609	3356.375732
1037.855469	3392.892090
1036.113281	3311.828613
1034.369141	3382.738281
1032.623047	3314.610840
1030.878906	3303.822754
1029.132813	3420.520752
1027.386719	3365.318848
1025.640625	3315.868652
1023.894531	3330.853760
1022.148438	3315.779053
1020.400391	3300.711182
1018.652344	3304.244873
1016.904297	3304.916748
1015.156250	3314.166260
1013.406250	3314.834717
1011.658203	3305.499023
1009.908203	3279.021729
1008.158203	3222.559326
1006.408203	3208.965576
1004.656250	3346.722900
1002.904297	3317.404297
1001.152344	3259.556396
999.400391	3347.268311
997.648438	3342.218750
995.896484	3325.761963
994.142578	3396.287109
992.388672	3374.123047
990.634766	3344.843018
988.878906	3307.027100
987.125000	3227.917725
985.369141	3399.498779
983.613281	3291.927002
981.857422	3379.426025
980.099609	3290.409180
978.343750	3340.873291
976.585938	3259.018311
974.828125	3404.753174
973.070313	3304.436279
971.310547	3352.006104
969.552734	3356.917236
967.792969	3370.350830
966.033203	3463.329346
964.273438	3398.618896
962.511719	3326.838135
960.750000	3385.691650
958.990234	3360.781738
957.226563	3401.153320
955.464844	3417.389893
953.703125	3364.123535
951.939453	3367.598877
950.175781	3290.268799
948.412109	3246.988770
946.648438	3268.908203
944.882813	3287.984131
943.117188	3247.566162
941.351563	3311.948486
939.585938	3314.012207
937.820313	3202.849854
936.052734	3251.631836
934.285156	3307.464111
932.517578	3210.522949
930.750000	3233.816162
928.982422	3242.961670
927.212891	3226.662354
925.443359	3275.369141
923.673828	3227.989990
921.904297	3282.322510
920.132813	3243.435303
918.361328	3215.859619
916.591797	3236.282959
914.818359	3149.457031
913.046875	3162.832275
911.275391	3229.795898
909.501953	3223.404541
907.728516	3142.300049
905.955078	3131.703125
904.179688	3116.883789
902.406250	3265.486084
900.630859	3212.614258
898.855469	3166.807373
897.080078	3195.633057
895.302734	3259.631104
893.525391	3265.907227
891.750000	3267.959961
889.970703	3203.907715
888.193359	3123.011719
886.416016	3126.500977
884.636719	3233.993408
882.857422	3175.628174
881.078125	3135.552490
879.296875	3168.528809
877.517578	3107.410400
875.736328	3096.858398
873.955078	3084.907227
872.173828	3112.250488
870.390625	3079.258301
868.609375	3030.853027
866.826172	3028.742920
865.042969	2994.390381
863.259766	3014.713623
861.474609	2971.972412
859.689453	3056.731689
857.904297	3029.406250
856.119141	3059.502686
854.333984	2969.193115
852.546875	2971.297607
850.761719	3079.743408
848.974609	3006.278809
847.185547	3065.714600
845.398438	3017.455566
843.609375	2980.402588
841.822266	3071.946777
840.031250	3093.583496
838.242188	2993.674805
836.453125	3082.357422
834.662109	3004.838135
832.871094	2980.402100
831.080078	3073.211670
829.289063	3048.770264
827.496094	3014.575439
825.703125	3004.105469
823.910156	3013.160889
822.117188	3052.879883
820.324219	2915.582275
818.529297	3050.053223
816.734375	2996.401855
814.939453	3069.511230
813.144531	3014.487549
811.347656	3019.347412
809.550781	2994.978760
807.755859	2951.141602
805.957031	2935.146240
804.160156	2956.708008
802.361328	2905.957764
800.564453	2869.132080
798.765625	2874.016357
796.964844	2877.508301
795.166016	2853.216553
793.365234	2813.659180
791.564453	2804.666260
789.763672	2866.471191
787.962891	2883.837646
786.160156	2811.010010
784.359375	2789.540771
782.556641	2791.657227
780.751953	2799.318359
778.949219	2802.817139
777.144531	2813.243164
775.339844	2786.255127
773.535156	2780.057617
771.730469	2802.944336
769.925781	2810.590576
768.119141	2771.169922
766.312500	2755.293457
764.505859	2720.054443
762.697266	2817.621338
760.890625	2768.554688
759.082031	2729.189209
757.273438	2752.042969
755.464844	2754.156738
753.654297	2774.230225
751.845703	2762.524658
750.035156	2732.872314
748.224609	2759.838623
746.412109	2734.341309
744.601563	2788.893311
742.789063	2789.613525
740.976563	2700.678467
739.164063	2753.819824
737.349609	2773.848389
735.537109	2747.003906
733.722656	2841.436035
731.908203	2668.554443
730.091797	2736.790283
728.277344	2754.043701
726.460938	2809.836182
724.644531	2730.718018
722.828125	2654.388916
721.009766	2711.540283
719.193359	2761.787598
717.375000	2736.382080
715.556641	2730.234863
713.736328	2776.317871
711.917969	2778.408203
710.097656	2673.343506
708.277344	2731.767578
706.457031	2707.777100
704.636719	2703.016602
702.814453	2684.533447
700.992188	2660.570313
699.169922	2662.682861
697.347656	2694.966797
695.523438	2650.450195
693.699219	2732.071289
691.875000	2702.642090
690.050781	2745.846436
688.226563	2730.125977
686.400391	2766.455078
684.574219	2771.274902
682.748047	2721.336914
680.921875	2779.538574
679.095703	2750.145264
677.267578	2802.840332
675.439453	2788.498535
673.611328	2765.959717
671.781250	2740.697510
669.953125	2752.345459
668.123047	2829.569092
666.292969	2808.406982
664.460938	2854.170654
662.630859	2893.085693
660.798828	2886.937744
658.966797	2923.096680
657.134766	2987.889160
655.302734	3044.466553
653.468750	3071.015869
651.634766	3040.291016
649.800781	3061.375977
647.966797	3049.745605
646.130859	3126.675537
644.294922	3056.465820
642.458984	3069.355469
640.623047	3003.276611
638.787109	2931.784668
636.949219	2884.820313
635.111328	2895.016602
633.273438	2814.080078
631.435547	2892.277344
629.595703	2811.379639
627.757813	2798.477295
625.917969	2770.633789
624.076172	2776.765869
622.236328	2738.075195
620.394531	2683.108398
618.552734	2655.318115
616.710938	2676.400146
614.869141	2658.122314
613.025391	2638.496582
611.183594	2650.073242
609.339844	2588.425293
607.494141	2606.785889
605.650391	2672.571533
603.804688	2669.223877
601.958984	2618.466309
600.113281	2609.715576
598.267578	2579.305420
596.419922	2561.092285
594.572266	2574.014160
592.724609	2507.102783
590.876953	2513.267334
589.027344	2457.220947
587.179688	2528.291504
585.330078	2529.039307
583.480469	2518.975586
581.628906	2410.289063
579.779297	2502.914063
577.927734	2463.154297
576.076172	2446.364502
574.222656	2451.178955
572.371094	2439.797852
570.517578	2387.947998
568.664063	2359.052490
566.810547	2378.715820
564.955078	2382.191650
563.101563	2275.143311
561.246094	2377.010254
559.390625	2411.468750
557.533203	2401.464111
555.677734	2395.503662
553.820313	2412.431641
551.962891	2414.546631
550.105469	2365.528076
548.246094	2395.903320
546.386719	2392.640381
544.527344	2400.135498
542.667969	2425.103027
540.808594	2411.083008
538.947266	2406.475342
537.085938	2362.912842
535.224609	2373.091553
533.363281	2432.944580
531.500000	2331.685059
529.638672	2407.623291
527.775391	2397.655029
525.910156	2489.637695
524.046875	2605.715576
522.181641	2870.561768
520.316406	3290.771729
518.451172	3228.338623
516.585938	2852.423096
514.718750	2582.505859
512.851563	2450.650391
510.984375	2364.378418
509.117188	2482.939697
507.250000	2341.834961
505.380859	2339.936279
503.511719	2406.253418
501.642578	2337.478516
499.771484	2378.362793
497.902344	2425.910400
496.031250	2305.064941
494.160156	2388.677734
492.287109	2433.516846
490.416016	2424.922119
488.542969	2385.626465
486.669922	2338.341553
484.796875	2340.449951
482.921875	2361.233887
481.046875	2372.671387
479.171875	2353.435547
477.296875	2315.545654
475.421875	2362.969727
473.544922	2363.736084
471.667969	2331.198975
469.791016	2402.557129
467.914063	2350.053955
466.035156	2338.841553
464.156250	2343.604492
462.277344	2319.093506
460.398438	2361.104004
458.519531	2332.610840
456.638672	2298.812744
454.757813	2324.846680
452.876953	2356.183594
450.994141	2290.517090
449.113281	2340.443115
447.230469	2345.194092
445.347656	2315.423828
443.462891	2257.793457
441.580078	2299.716797
439.695313	2366.827148
437.810547	2294.635498
435.925781	2256.955811
434.039063	2321.376221
432.152344	2340.701172
430.267578	2281.835449
428.378906	2281.288574
426.492188	2309.880127
424.603516	2311.974854
422.714844	2344.516602
420.826172	2251.308350
418.937500	2267.970459
417.046875	2264.781006
415.158203	2269.528564
413.265625	2258.406738
411.375000	2227.460938
409.484375	2380.234863
407.591797	2281.887939
405.699219	2282.662109
403.806641	2290.039063
401.912109	2285.529297
400.019531	2171.458496
