#Wave		#Intensity
1585.210938	25858.126953
1584.209961	26127.873047
1583.208984	25605.554688
1582.208008	25770.019531
1581.206055	25659.843750
1580.204102	25667.005859
1579.202148	25524.460938
1578.200195	25556.591797
1577.198242	25526.357422
1576.195313	25423.822266
1575.192383	25378.667969
1574.189453	25358.457031
1573.186523	25261.001953
1572.182617	25452.593750
1571.178711	25088.628906
1570.174805	25217.914063
1569.170898	25187.792969
1568.166992	24868.914063
1567.162109	24731.855469
1566.158203	24871.056641
1565.153320	24987.810547
1564.147461	25196.544922
1563.142578	24942.646484
1562.136719	24925.050781
1561.130859	25041.693359
1560.125000	25175.681641
1559.119141	25530.755859
1558.113281	25324.248047
1557.106445	25992.091797
1556.099609	26490.798828
1555.092773	26532.484375
1554.084961	26479.830078
1553.078125	26851.560547
1552.070313	27446.437500
1551.062500	28026.183594
1550.054688	28228.710938
1549.045898	28634.480469
1548.038086	29548.294922
1547.029297	30139.515625
1546.020508	30656.146484
1545.011719	31336.082031
1544.001953	32119.769531
1542.992188	32769.398438
1541.982422	33552.464844
1540.972656	34374.808594
1539.962891	34313.242188
1538.952148	34835.675781
1537.942383	35474.167969
1536.931641	35212.058594
1535.919922	35306.160156
1534.909180	34861.230469
1533.897461	34238.503906
1532.886719	33529.535156
1531.874023	32751.675781
1530.862305	32087.773438
1529.850586	31599.505859
1528.837891	30928.705078
1527.825195	30070.550781
1526.812500	29508.949219
1525.799805	29033.951172
1524.786133	28495.000000
1523.772461	28175.816406
1522.758789	27464.623047
1521.745117	27064.410156
1520.731445	26839.396484
1519.716797	26151.101563
1518.702148	26194.970703
1517.687500	26290.558594
1516.672852	26198.902344
1515.657227	26013.697266
1514.642578	26188.052734
1513.626953	25966.000000
1512.610352	26041.839844
1511.594727	26181.626953
1510.579102	26358.257813
1509.562500	26106.832031
1508.545898	26248.974609
1507.529297	26214.033203
1506.511719	26193.855469
1505.494141	26589.021484
1504.477539	26273.917969
1503.458984	26253.734375
1502.441406	26265.488281
1501.423828	25938.365234
1500.405273	25736.585938
1499.386719	26190.257813
1498.368164	26008.140625
1497.348633	25980.669922
1496.330078	26156.812500
1495.310547	26001.787109
1494.291016	26006.207031
1493.271484	26143.007813
1492.250977	25975.822266
1491.231445	25943.484375
1490.210938	26335.007813
1489.190430	26109.095703
1488.168945	26015.521484
1487.148438	26357.812500
1486.126953	26207.917969
1485.105469	26356.675781
1484.083984	26554.308594
1483.061523	26443.607422
1482.040039	26509.058594
1481.017578	26623.388672
1479.995117	26823.242188
1478.971680	26839.679688
1477.949219	27496.414063
1476.925781	27642.203125
1475.902344	28032.220703
1474.878906	28544.193359
1473.855469	28904.556641
1472.831055	29101.195313
1471.806641	30051.980469
1470.782227	30277.582031
1469.757813	31066.695313
1468.733398	31994.521484
1467.708008	32500.041016
1466.682617	32910.253906
1465.657227	33471.441406
1464.631836	34595.417969
1463.605469	35450.875000
1462.579102	36359.570313
1461.552734	37314.171875
1460.526367	38731.082031
1459.500000	39304.960938
1458.472656	40353.285156
1457.445313	40731.878906
1456.417969	40682.058594
1455.390625	41330.464844
1454.362305	40808.675781
1453.334961	40902.335938
1452.306641	40480.527344
1451.277344	39793.941406
1450.249023	39124.648438
1449.219727	38188.359375
1448.191406	36790.902344
1447.162109	35821.480469
1446.131836	34633.917969
1445.102539	33645.917969
1444.072266	32854.933594
1443.041992	32066.705078
1442.011719	31332.175781
1440.981445	30665.871094
1439.950195	29929.511719
1438.918945	29513.515625
1437.887695	29165.570313
1436.856445	28842.003906
1435.825195	28676.078125
1434.792969	28498.105469
1433.760742	27976.255859
1432.728516	27849.355469
1431.696289	27799.982422
1430.663086	27462.570313
1429.629883	27258.404297
1428.596680	26822.035156
1427.563477	26574.539063
1426.530273	26286.027344
1425.496094	26415.976563
1424.461914	26308.939453
1423.427734	26156.019531
1422.393555	25626.164063
1421.358398	25835.869141
1420.323242	25965.767578
1419.288086	25699.529297
1418.252930	25397.177734
1417.217773	25314.638672
1416.181641	25492.806641
1415.145508	25393.386719
1414.109375	25549.746094
1413.073242	25216.375000
1412.036133	25502.931641
1411.000000	25608.531250
1409.962891	25523.646484
1408.924805	25896.718750
1407.887695	25922.648438
1406.849609	26519.525391
1405.812500	26738.001953
1404.773438	27329.640625
1403.735352	27829.542969
1402.697266	28124.630859
1401.658203	28277.605469
1400.619141	28887.671875
1399.580078	28970.656250
1398.540039	29145.000000
1397.500977	29408.236328
1396.460938	29613.664063
1395.420898	29307.039063
1394.380859	29320.150391
1393.339844	29249.164063
1392.298828	29418.416016
1391.257813	29157.708984
1390.216797	29057.982422
1389.175781	29207.957031
1388.133789	28940.251953
1387.091797	29154.972656
1386.049805	29494.355469
1385.007813	29356.275391
1383.964844	29422.087891
1382.922852	29900.255859
1381.879883	30210.427734
1380.835938	30431.792969
1379.792969	30473.357422
1378.749023	30749.669922
1377.706055	31133.644531
1376.661133	31122.349609
1375.617188	31307.373047
1374.573242	31722.099609
1373.528320	32031.355469
1372.483398	31670.558594
1371.438477	31910.320313
1370.392578	32030.402344
1369.347656	32200.644531
1368.301758	32184.347656
1367.255859	32232.589844
1366.208984	32531.712891
1365.163086	32522.517578
1364.116211	32200.421875
1363.069336	32721.449219
1362.022461	32666.849609
1360.974609	33006.140625
1359.927734	32992.070313
1358.879883	33154.574219
1357.832031	33519.785156
1356.783203	33620.093750
1355.735352	33865.820313
1354.686523	34078.062500
1353.637695	34352.187500
1352.588867	35009.871094
1351.539063	35343.246094
1350.490234	35969.472656
1349.440430	36762.148438
1348.390625	37604.492188
1347.339844	38310.785156
1346.290039	38976.316406
1345.239258	39593.976563
1344.188477	40349.363281
1343.137695	40904.625000
1342.085938	41802.097656
1341.034180	42451.925781
1339.982422	42792.449219
1338.930664	42576.707031
1337.878906	43344.757813
1336.826172	43877.296875
1335.773438	44290.855469
1334.720703	44238.812500
1333.667969	44039.597656
1332.614258	43916.414063
1331.561523	43294.933594
1330.507813	42835.042969
1329.453125	42541.390625
1328.399414	42174.339844
1327.344727	41522.910156
1326.290039	40705.804688
1325.235352	40664.066406
1324.180664	40174.488281
1323.125000	39542.960938
1322.070313	39676.765625
1321.014648	39675.527344
1319.958008	39169.980469
1318.902344	39074.156250
1317.845703	38509.781250
1316.789063	37706.656250
1315.732422	37722.378906
1314.675781	36531.875000
1313.618164	36465.066406
1312.560547	35629.941406
1311.502930	35038.621094
1310.445313	34012.730469
1309.386719	33303.859375
1308.329102	32337.812500
1307.270508	31884.648438
1306.210938	30820.134766
1305.152344	30343.869141
1304.092773	29723.833984
1303.033203	29163.048828
1301.973633	29041.302734
1300.914063	28818.181641
1299.853516	28491.394531
1298.792969	28108.158203
1297.732422	28168.230469
1296.671875	27898.339844
1295.611328	27777.001953
1294.549805	27799.408203
1293.488281	27918.367188
1292.426758	27893.636719
1291.364258	27960.726563
1290.302734	27799.480469
1289.240234	27850.085938
1288.177734	27646.578125
1287.114258	27659.556641
1286.051758	27432.652344
1284.988281	27551.470703
1283.924805	27263.562500
1282.861328	27560.978516
1281.796875	27280.234375
1280.732422	27340.246094
1279.667969	27397.880859
1278.603516	27563.507813
1277.539063	27571.763672
1276.473633	27922.710938
1275.408203	27722.023438
1274.342773	27458.070313
1273.277344	27729.058594
1272.210938	27877.974609
1271.145508	28036.205078
1270.079102	27765.369141
1269.011719	27736.050781
1267.945313	27875.458984
1266.877930	27485.341797
1265.810547	27617.710938
1264.743164	27129.455078
1263.674805	26927.037109
1262.607422	26401.675781
1261.539063	26243.960938
1260.470703	26044.193359
1259.401367	25580.169922
1258.333008	25792.251953
1257.263672	25377.578125
1256.194336	24846.189453
1255.125000	24738.076172
1254.054688	24473.439453
1252.985352	24234.613281
1251.915039	23998.222656
1250.843750	23764.263672
1249.773438	23712.521484
1248.702148	23471.716797
1247.630859	23263.687500
1246.559570	23100.078125
1245.488281	23099.835938
1244.416016	22731.080078
1243.343750	22535.035156
1242.271484	22597.853516
1241.199219	22523.123047
1240.125977	22136.154297
1239.053711	22401.710938
1237.980469	22268.830078
1236.906250	22699.591797
1235.833008	22433.982422
1234.758789	22182.451172
1233.684570	22219.623047
1232.610352	22305.640625
1231.536133	22168.287109
1230.460938	22326.378906
1229.385742	22191.400391
1228.310547	22247.119141
1227.235352	22119.185547
1226.159180	22546.720703
1225.083008	22112.082031
1224.006836	22346.628906
1222.930664	22574.109375
1221.853516	22771.304688
1220.777344	22548.230469
1219.700195	22942.625000
1218.622070	22884.359375
1217.544922	23106.832031
1216.466797	23201.638672
1215.388672	23382.203125
1214.310547	23850.179688
1213.232422	24086.158203
1212.153320	24215.427734
1211.074219	24245.009766
1209.995117	24712.396484
1208.916016	24883.130859
1207.835938	24836.134766
1206.755859	24992.876953
1205.675781	24563.976563
1204.595703	24720.705078
1203.514648	24879.679688
1202.434570	24569.037109
1201.353516	24482.841797
1200.271484	24512.285156
1199.190430	24229.652344
1198.108398	24296.109375
1197.026367	24168.449219
1195.944336	23966.917969
1194.862305	23693.875000
1193.779297	23545.636719
1192.696289	23480.570313
1191.613281	22873.128906
1190.530273	22759.769531
1189.446289	22311.929688
1188.362305	22510.126953
1187.278320	22226.261719
1186.194336	21914.849609
1185.109375	21767.230469
1184.024414	21612.761719
1182.939453	21545.912109
1181.854492	21822.332031
1180.768555	21359.324219
1179.683594	21352.435547
1178.597656	21078.500000
1177.510742	20981.906250
1176.424805	20634.527344
1175.337891	20793.441406
1174.250977	21005.189453
1173.164063	20775.306641
1172.077148	20950.177734
1170.989258	20996.246094
1169.901367	20467.742188
1168.813477	20968.835938
1167.724609	20739.199219
1166.636719	21207.859375
1165.547852	21024.191406
1164.458984	20783.207031
1163.369141	21093.181641
1162.280273	21421.376953
1161.190430	21611.775391
1160.100586	21737.865234
1159.010742	21877.658203
1157.919922	21914.214844
1156.829102	22005.767578
1155.738281	21975.816406
1154.647461	22053.564453
1153.555664	21959.470703
1152.464844	21922.671875
1151.373047	22217.906250
1150.280273	22045.994141
1149.188477	21807.779297
1148.095703	21960.968750
1147.002930	21770.914063
1145.910156	21320.187500
1144.817383	21647.173828
1143.723633	21388.716797
1142.629883	21464.101563
1141.536133	20924.693359
1140.441406	20952.160156
1139.347656	20824.277344
1138.252930	20796.937500
1137.158203	20714.806641
1136.062500	20438.664063
1134.967773	20571.187500
1133.872070	20375.060547
1132.776367	20372.933594
1131.679688	20259.041016
1130.583984	20320.789063
1129.487305	20656.099609
1128.390625	20517.142578
1127.292969	21009.507813
1126.196289	20674.583984
1125.098633	20478.757813
1124.000977	20531.257813
1122.903320	20538.193359
1121.804688	20474.554688
1120.706055	20317.626953
1119.607422	20520.291016
1118.508789	20543.140625
1117.409180	20049.669922
1116.310547	20159.019531
1115.210938	20441.107422
1114.110352	20250.285156
1113.010742	20034.546875
1111.910156	20027.925781
1110.809570	20334.777344
1109.708984	20114.611328
1108.607422	20384.980469
1107.506836	19958.320313
1106.405273	19747.455078
1105.303711	19931.496094
1104.201172	19686.695313
1103.098633	19689.218750
1101.996094	19814.191406
1100.893555	19599.041016
1099.791016	19796.505859
1098.687500	19687.958984
1097.583984	19735.783203
1096.480469	19808.501953
1095.376953	19964.980469
1094.272461	19915.349609
1093.167969	19895.167969
1092.063477	20003.992188
1090.958008	19999.634766
1089.853516	20454.496094
1088.748047	20601.572266
1087.642578	20766.669922
1086.536133	20789.271484
1085.430664	21223.214844
1084.324219	21521.386719
1083.217773	21778.761719
1082.110352	21995.363281
1081.003906	22347.363281
1079.896484	22450.857422
1078.789063	22989.951172
1077.680664	23018.783203
1076.573242	23370.244141
1075.464844	23024.521484
1074.356445	22733.072266
1073.247070	22910.742188
1072.138672	22856.142578
1071.029297	22267.416016
1069.919922	22523.929688
1068.809570	21924.265625
1067.700195	21885.687500
1066.589844	21797.582031
1065.479492	21563.179688
1064.368164	21292.863281
1063.257813	20910.146484
1062.146484	20673.835938
1061.035156	20536.597656
1059.922852	20264.486328
1058.811523	20194.845703
1057.699219	20073.533203
1056.586914	20021.939453
1055.473633	19932.169922
1054.361328	19669.466797
1053.248047	19626.974609
1052.134766	19346.484375
1051.021484	19333.261719
1049.907227	19515.310547
1048.792969	19634.445313
1047.678711	19408.037109
1046.564453	19367.890625
1045.449219	19504.914063
1044.333984	19614.972656
1043.218750	19464.968750
1042.103516	19422.597656
1040.987305	19357.837891
1039.871094	19201.265625
1038.754883	19423.236328
1037.638672	19436.878906
1036.521484	19105.783203
1035.404297	19204.531250
1034.287109	19314.423828
1033.169922	19122.263672
1032.051758	19176.207031
1030.933594	19393.357422
1029.815430	19400.267578
1028.697266	19395.998047
1027.578125	19215.195313
1026.458984	19400.863281
1025.339844	19262.574219
1024.220703	19374.453125
1023.100586	19528.701172
1021.980469	19526.630859
1020.860352	19415.208984
1019.740234	19544.796875
1018.619141	19308.500000
1017.498047	19333.234375
1016.376953	19190.732422
1015.255859	19275.666016
1014.133789	19066.373047
1013.011719	19307.267578
1011.889648	19421.074219
1010.767578	19298.744141
1009.644531	19374.646484
1008.521484	19314.710938
1007.398438	19041.132813
1006.274414	19406.314453
1005.151367	19132.832031
1004.027344	19375.498047
1002.902344	19179.970703
1001.778320	19609.269531
1000.653320	19453.783203
999.528320	19718.378906
998.403320	19578.486328
997.278320	19818.500000
996.152344	19656.435547
995.026367	19467.798828
993.900391	19911.896484
992.773438	19951.875000
991.646484	20224.812500
990.519531	20306.849609
989.392578	20575.148438
988.265625	20606.068359
987.137695	20652.490234
986.009766	20862.902344
984.881836	21175.150391
983.752930	20694.142578
982.624023	21024.007813
981.495117	20749.183594
980.366211	20649.380859
979.236328	20830.728516
978.106445	20509.654297
976.976563	20237.394531
975.846680	20093.546875
974.715820	19978.511719
973.585938	19907.744141
972.454102	19872.375000
971.323242	19498.890625
970.191406	19565.261719
969.060547	19406.281250
967.927734	19302.583984
966.795898	19591.962891
965.663086	19461.775391
964.530273	19128.595703
963.397461	19130.958984
962.264648	19294.365234
961.130859	19276.837891
959.997070	19087.320313
958.863281	19374.080078
957.729492	19440.298828
956.594727	19204.587891
955.459961	19526.375000
954.325195	19262.113281
953.189453	19182.949219
952.053711	19097.212891
950.917969	19240.435547
949.782227	19002.873047
948.646484	18987.636719
947.509766	18899.812500
946.373047	18976.968750
945.235352	18996.921875
944.098633	19038.845703
942.960938	18944.490234
941.823242	19155.591797
940.685547	19113.970703
939.546875	19118.488281
938.408203	19120.806641
937.269531	19437.046875
936.129883	19698.275391
934.991211	19718.011719
933.851563	19823.296875
932.711914	19799.125000
931.571289	20073.189453
930.431641	20029.240234
929.291016	20070.789063
928.149414	20237.226563
927.008789	20307.189453
925.867188	19958.755859
924.725586	19993.707031
923.583984	20030.832031
922.441406	20021.968750
921.299805	19413.482422
920.157227	19409.134766
919.013672	19330.416016
917.871094	19039.593750
916.727539	18906.328125
915.583984	18740.330078
914.439453	18801.693359
913.295898	18745.039063
912.151367	18585.736328
911.006836	18658.009766
909.861328	18573.035156
908.716797	18433.521484
907.571289	18571.250000
906.424805	18713.281250
905.279297	18436.384766
904.132813	18334.099609
902.986328	18410.664063
901.839844	18378.189453
900.692383	18358.804688
899.545898	18274.054688
898.398438	18498.705078
897.250000	18291.980469
896.102539	18551.365234
894.954102	18625.574219
893.805664	18880.410156
892.656250	18373.466797
891.507813	18341.050781
890.358398	18347.802734
889.208984	18480.681641
888.058594	18489.568359
886.908203	18207.169922
885.758789	18307.388672
884.607422	18379.314453
883.457031	18312.179688
882.305664	18216.841797
881.154297	18173.656250
880.002930	18269.419922
878.850586	18334.753906
877.698242	18033.357422
876.545898	18027.123047
875.393555	18248.619141
874.240234	17997.314453
873.086914	18099.480469
871.933594	18041.214844
870.780273	17785.787109
869.625977	17799.105469
868.471680	17922.878906
867.317383	17955.646484
866.162109	17860.667969
865.007813	17917.240234
863.852539	18073.328125
862.696289	17876.697266
861.541016	17584.984375
860.384766	17531.275391
859.228516	17918.636719
858.072266	17767.605469
856.915039	17653.378906
855.757813	17735.810547
854.600586	17664.839844
853.442383	17915.673828
852.285156	17760.488281
851.126953	17635.589844
849.968750	17629.443359
848.809570	17705.287109
847.650391	17830.707031
846.491211	17565.720703
845.332031	17671.707031
844.171875	17712.976563
843.012695	17588.277344
841.851563	17672.634766
840.691406	17530.765625
839.530273	17808.929688
838.369141	17705.847656
837.208008	17632.947266
836.046875	17534.253906
834.884766	17807.855469
833.722656	17655.380859
832.560547	17681.490234
831.397461	17873.156250
830.234375	17834.705078
829.071289	17553.400391
827.908203	17542.970703
826.744141	17715.154297
825.580078	17824.970703
824.416016	17586.863281
823.251953	17625.808594
822.086914	17694.783203
820.921875	17581.324219
819.756836	17661.003906
818.590820	17903.658203
817.425781	17492.148438
816.259766	17713.289063
815.092773	17771.423828
813.926758	17666.666016
812.759766	17825.478516
811.592773	17690.765625
810.424805	17549.685547
809.257813	17652.746094
808.089844	17286.982422
806.920898	17507.753906
805.752930	17649.261719
804.583984	17638.830078
803.415039	17825.150391
802.246094	17652.183594
801.076172	17609.687500
799.906250	17584.308594
798.736328	17469.199219
797.566406	17503.671875
796.395508	17531.720703
795.224609	17606.728516
794.053711	17491.712891
792.881836	17997.804688
791.710938	18202.808594
790.538086	18226.392578
789.366211	18810.876953
788.194336	19041.138672
787.021484	19053.851563
785.848633	19309.523438
784.674805	19392.482422
783.500977	19143.072266
782.327148	18836.269531
781.153320	19051.294922
779.979492	18768.066406
778.804688	18614.796875
777.629883	18457.337891
776.454102	18319.099609
775.279297	18365.962891
774.103516	18342.630859
772.927734	18136.476563
771.750977	18030.312500
770.575195	18682.810547
769.398438	18774.144531
768.220703	18725.251953
767.043945	19149.923828
765.866211	19158.285156
764.688477	19512.617188
763.510742	19871.029297
762.332031	19851.634766
761.153320	20553.419922
759.974609	21070.390625
758.794922	21981.464844
757.616211	22987.505859
756.436523	24399.960938
755.255859	26220.671875
754.076172	28135.867188
752.895508	30967.146484
751.714844	34385.714844
750.533203	38156.210938
749.352539	42318.597656
748.170898	45935.324219
746.988281	49085.027344
745.806641	50289.792969
744.624023	51832.289063
743.441406	51372.281250
742.258789	49832.566406
741.075195	48278.761719
739.891602	47105.890625
738.708008	45918.773438
737.523438	44966.562500
736.339844	43959.898438
735.155273	42915.703125
733.969727	41677.871094
732.785156	40077.773438
731.599609	37668.558594
730.414063	35357.433594
729.227539	32269.509766
728.041992	29459.087891
726.855469	27381.097656
725.667969	25245.076172
724.481445	23545.992188
723.293945	22430.935547
722.106445	21289.025391
720.918945	20417.027344
719.730469	20283.986328
718.541992	19662.953125
717.353516	19624.787109
716.164063	19199.738281
714.975586	18919.937500
713.786133	18594.025391
712.595703	18497.296875
711.406250	18581.277344
710.215820	18406.884766
709.025391	18381.654297
707.833984	18026.843750
706.642578	18073.070313
705.451172	18245.175781
704.259766	18326.992188
703.068359	18142.402344
701.875977	18542.931641
700.683594	18957.951172
699.490234	19184.142578
698.297852	19890.087891
697.104492	20660.652344
695.910156	21342.892578
694.716797	22154.644531
693.522461	22474.041016
692.328125	22943.988281
691.132813	22938.707031
689.938477	22600.783203
688.743164	22683.425781
687.547852	21994.406250
686.351563	21493.857422
685.155273	21095.957031
683.958984	20737.941406
682.762695	19918.378906
681.565430	19924.232422
680.368164	19545.847656
679.170898	19399.376953
677.973633	19559.798828
676.775391	19417.562500
675.577148	19350.496094
674.378906	19273.031250
673.179688	18901.566406
671.980469	19122.373047
670.781250	18907.441406
669.581055	18552.984375
668.381836	18523.705078
667.181641	18375.708984
665.980469	18177.800781
664.780273	17907.113281
663.579102	18150.679688
662.377930	18117.357422
661.175781	17747.000000
659.973633	17894.748047
658.771484	17901.015625
657.569336	17901.041016
656.367188	18256.509766
655.164063	18204.498047
653.960938	18460.001953
652.756836	18480.666016
651.552734	18835.666016
650.348633	19059.701172
649.144531	19320.992188
647.939453	19559.335938
646.735352	19886.781250
645.529297	20033.611328
644.324219	20180.371094
643.118164	20248.275391
641.912109	20032.164063
640.706055	19799.572266
639.499023	19757.701172
638.292969	19367.849609
637.084961	19183.199219
635.877930	18772.953125
634.669922	18288.375000
633.461914	18008.900391
632.253906	18079.220703
631.044922	17835.087891
629.836914	17758.580078
628.626953	17682.107422
627.417969	17731.763672
626.208008	17355.666016
624.998047	17430.166016
623.788086	17574.861328
622.577148	17320.906250
621.366211	17180.625000
620.155273	17263.349609
618.944336	17129.335938
617.732422	16883.966797
616.520508	16774.853516
615.308594	16935.958984
614.095703	16754.718750
612.882813	17119.828125
611.669922	16773.753906
610.457031	16837.865234
609.243164	16858.685547
608.029297	16595.287109
606.815430	16618.212891
605.600586	16877.855469
604.385742	16589.935547
603.170898	16870.039063
601.955078	16810.589844
600.740234	16954.771484
599.524414	16889.160156
598.307617	16790.687500
597.091797	17062.193359
595.875000	17093.169922
594.658203	17218.626953
593.440430	17134.539063
592.222656	16943.720703
591.004883	16995.220703
589.787109	16837.355469
588.568359	16903.216797
587.349609	16936.224609
586.130859	16735.412109
584.912109	16534.691406
583.692383	16370.961914
582.472656	16502.431641
581.251953	16732.193359
580.032227	16718.072266
578.811523	16769.492188
577.589844	16992.886719
576.369141	17042.171875
575.147461	17062.779297
573.925781	17234.792969
572.703125	17834.271484
571.481445	17881.265625
570.258789	18365.810547
569.035156	18647.748047
567.812500	18988.822266
566.588867	19374.691406
565.365234	19813.492188
564.140625	19700.650391
562.916992	19945.191406
561.692383	20099.794922
560.466797	20115.541016
559.242188	20021.093750
558.016602	19775.730469
556.791016	19295.931641
555.564453	18624.685547
554.337891	18624.441406
553.111328	17916.974609
551.884766	17470.650391
550.657227	17161.021484
549.429688	16959.480469
548.202148	16935.183594
546.974609	16648.285156
545.746094	16449.035156
544.517578	16245.807617
543.288086	16331.547852
542.058594	16494.533203
540.829102	16301.599609
539.599609	16295.783203
538.370117	16269.643555
537.139648	16219.131836
535.909180	16262.091797
534.677734	16262.378906
533.446289	16138.800781
532.214844	16370.542969
530.983398	16062.301758
529.750977	16295.981445
528.519531	16097.447266
527.286133	15923.341797
526.053711	15797.981445
524.820313	16003.120117
523.586914	15983.190430
522.353516	16048.374023
521.119141	15961.588867
519.884766	16168.520508
518.650391	15856.982422
517.415039	15936.301758
516.179688	15936.649414
514.944336	15965.325195
513.708984	15959.594727
