#Wave		#Intensity
1585.210938	22673.628906
1584.209961	23028.294922
1583.208984	22833.742188
1582.208008	22976.310547
1581.206055	22916.636719
1580.204102	23051.642578
1579.202148	22892.171875
1578.200195	22710.318359
1577.198242	22930.076172
1576.195313	22882.935547
1575.192383	22818.365234
1574.189453	22539.464844
1573.186523	22676.839844
1572.182617	22584.941406
1571.178711	22311.244141
1570.174805	22563.134766
1569.170898	22371.720703
1568.166992	22471.640625
1567.162109	22489.386719
1566.158203	22223.453125
1565.153320	22487.537109
1564.147461	22433.132813
1563.142578	22351.396484
1562.136719	22441.248047
1561.130859	22650.376953
1560.125000	22663.083984
1559.119141	22797.537109
1558.113281	22996.523438
1557.106445	22996.728516
1556.099609	23704.646484
1555.092773	23446.503906
1554.084961	23863.619141
1553.078125	23771.820313
1552.070313	23987.720703
1551.062500	24337.484375
1550.054688	24533.333984
1549.045898	24838.205078
1548.038086	25321.443359
1547.029297	25767.302734
1546.020508	26284.839844
1545.011719	26519.720703
1544.001953	27173.123047
1542.992188	27737.097656
1541.982422	28238.937500
1540.972656	28596.990234
1539.962891	28937.568359
1538.952148	29117.162109
1537.942383	29224.935547
1536.931641	29238.671875
1535.919922	29423.035156
1534.909180	29187.007813
1533.897461	29040.066406
1532.886719	28473.044922
1531.874023	27782.712891
1530.862305	27878.246094
1529.850586	27012.958984
1528.837891	26434.474609
1527.825195	26120.396484
1526.812500	25655.876953
1525.799805	24989.187500
1524.786133	24927.265625
1523.772461	24261.000000
1522.758789	24046.341797
1521.745117	24053.691406
1520.731445	23664.128906
1519.716797	23163.812500
1518.702148	23223.085938
1517.687500	23186.248047
1516.672852	23053.359375
1515.657227	22905.746094
1514.642578	23068.433594
1513.626953	23061.195313
1512.610352	23268.080078
1511.594727	23059.025391
1510.579102	22822.994141
1509.562500	22997.822266
1508.545898	23130.771484
1507.529297	23128.437500
1506.511719	22772.134766
1505.494141	22954.197266
1504.477539	23005.955078
1503.458984	23119.107422
1502.441406	23649.746094
1501.423828	22714.179688
1500.405273	23310.968750
1499.386719	23284.048828
1498.368164	23090.261719
1497.348633	22950.531250
1496.330078	22999.744141
1495.310547	23210.800781
1494.291016	23267.292969
1493.271484	23326.210938
1492.250977	23394.908203
1491.231445	23093.548828
1490.210938	23074.062500
1489.190430	23473.445313
1488.168945	23044.906250
1487.148438	23169.900391
1486.126953	23311.974609
1485.105469	23458.884766
1484.083984	23436.894531
1483.061523	23571.482422
1482.040039	23865.000000
1481.017578	23820.925781
1479.995117	23811.097656
1478.971680	23889.271484
1477.949219	23945.416016
1476.925781	24182.347656
1475.902344	24472.921875
1474.878906	24829.320313
1473.855469	24929.171875
1472.831055	25490.402344
1471.806641	25641.330078
1470.782227	26133.845703
1469.757813	26477.324219
1468.733398	27147.531250
1467.708008	27012.642578
1466.682617	27987.250000
1465.657227	28242.291016
1464.631836	28887.197266
1463.605469	29799.884766
1462.579102	30237.111328
1461.552734	31093.113281
1460.526367	32180.111328
1459.500000	32507.000000
1458.472656	33279.226563
1457.445313	33406.179688
1456.417969	34370.125000
1455.390625	34161.066406
1454.362305	34192.890625
1453.334961	33718.894531
1452.306641	33172.152344
1451.277344	33111.789063
1450.249023	32521.650391
1449.219727	31577.013672
1448.191406	30793.097656
1447.162109	29883.210938
1446.131836	29097.541016
1445.102539	28700.630859
1444.072266	27796.595703
1443.041992	27317.609375
1442.011719	27081.443359
1440.981445	26248.646484
1439.950195	26054.027344
1438.918945	25815.839844
1437.887695	25233.515625
1436.856445	25349.455078
1435.825195	24881.355469
1434.792969	24834.998047
1433.760742	24500.417969
1432.728516	24701.166016
1431.696289	24579.814453
1430.663086	23976.796875
1429.629883	24167.843750
1428.596680	23862.779297
1427.563477	23831.205078
1426.530273	23804.480469
1425.496094	23323.150391
1424.461914	23224.009766
1423.427734	23192.589844
1422.393555	23124.929688
1421.358398	22967.900391
1420.323242	22562.125000
1419.288086	22750.640625
1418.252930	22646.904297
1417.217773	22789.453125
1416.181641	22432.318359
1415.145508	22681.025391
1414.109375	22488.119141
1413.073242	22394.187500
1412.036133	22758.501953
1411.000000	22806.806641
1409.962891	22705.630859
1408.924805	22773.205078
1407.887695	23390.142578
1406.849609	23544.269531
1405.812500	23886.205078
1404.773438	24377.298828
1403.735352	24925.966797
1402.697266	24908.736328
1401.658203	25144.205078
1400.619141	25511.910156
1399.580078	25699.039063
1398.540039	25566.210938
1397.500977	25784.507813
1396.460938	26036.369141
1395.420898	25942.005859
1394.380859	25715.509766
1393.339844	25606.833984
1392.298828	25678.359375
1391.257813	25416.031250
1390.216797	25494.765625
1389.175781	25333.406250
1388.133789	25342.521484
1387.091797	25380.423828
1386.049805	25763.777344
1385.007813	25662.455078
1383.964844	25918.488281
1382.922852	25980.208984
1381.879883	26200.109375
1380.835938	26666.763672
1379.792969	26697.134766
1378.749023	27134.740234
1377.706055	27191.341797
1376.661133	27300.601563
1375.617188	27646.826172
1374.573242	27600.357422
1373.528320	27776.460938
1372.483398	27557.716797
1371.438477	27776.810547
1370.392578	27955.154297
1369.347656	27769.978516
1368.301758	27587.267578
1367.255859	27842.015625
1366.208984	27716.712891
1365.163086	27873.373047
1364.116211	28025.187500
1363.069336	27716.037109
1362.022461	28068.373047
1360.974609	28088.755859
1359.927734	27858.539063
1358.879883	28451.613281
1357.832031	28319.220703
1356.783203	28380.072266
1355.735352	28507.666016
1354.686523	28718.646484
1353.637695	29015.345703
1352.588867	29168.933594
1351.539063	29772.763672
1350.490234	30416.833984
1349.440430	30755.789063
1348.390625	31189.845703
1347.339844	31971.281250
1346.290039	32926.132813
1345.239258	33314.242188
1344.188477	33809.246094
1343.137695	34235.058594
1342.085938	34686.847656
1341.034180	34998.167969
1339.982422	35608.871094
1338.930664	35558.621094
1337.878906	35917.078125
1336.826172	36251.625000
1335.773438	36562.281250
1334.720703	36485.742188
1333.667969	36418.726563
1332.614258	36529.761719
1331.561523	35962.035156
1330.507813	35835.851563
1329.453125	35792.742188
1328.399414	34732.230469
1327.344727	34900.394531
1326.290039	33902.144531
1325.235352	33575.050781
1324.180664	33665.148438
1323.125000	33307.441406
1322.070313	33198.585938
1321.014648	33193.976563
1319.958008	32952.597656
1318.902344	32450.937500
1317.845703	32500.910156
1316.789063	32221.966797
1315.732422	32054.324219
1314.675781	31550.900391
1313.618164	30969.652344
1312.560547	30573.048828
1311.502930	30013.519531
1310.445313	29399.873047
1309.386719	28500.601563
1308.329102	28050.513672
1307.270508	27444.746094
1306.210938	26699.921875
1305.152344	26651.804688
1304.092773	25751.687500
1303.033203	25621.197266
1301.973633	25191.146484
1300.914063	25145.738281
1299.853516	24881.037109
1298.792969	24797.988281
1297.732422	24429.751953
1296.671875	24238.421875
1295.611328	24478.349609
1294.549805	24409.582031
1293.488281	24274.894531
1292.426758	24255.642578
1291.364258	24377.648438
1290.302734	24476.064453
1289.240234	24306.171875
1288.177734	24051.652344
1287.114258	23990.119141
1286.051758	24295.476563
1284.988281	24017.601563
1283.924805	24576.697266
1282.861328	24150.814453
1281.796875	23767.406250
1280.732422	23945.619141
1279.667969	24173.080078
1278.603516	23900.269531
1277.539063	23986.777344
1276.473633	24183.564453
1275.408203	24241.810547
1274.342773	24682.466797
1273.277344	24348.837891
1272.210938	24636.841797
1271.145508	24605.832031
1270.079102	24553.738281
1269.011719	24464.162109
1267.945313	24550.369141
1266.877930	24510.027344
1265.810547	24059.802734
1264.743164	23743.248047
1263.674805	23815.478516
1262.607422	23405.476563
1261.539063	23400.513672
1260.470703	23119.457031
1259.401367	22913.375000
1258.333008	22763.509766
1257.263672	22630.076172
1256.194336	22363.439453
1255.125000	22113.277344
1254.054688	21966.039063
1252.985352	21923.996094
1251.915039	21886.640625
1250.843750	21513.011719
1249.773438	21622.849609
1248.702148	21328.800781
1247.630859	21300.931641
1246.559570	21114.404297
1245.488281	20934.955078
1244.416016	20718.261719
1243.343750	20828.119141
1242.271484	20842.341797
1241.199219	20530.236328
1240.125977	20733.273438
1239.053711	20537.814453
1237.980469	20717.464844
1236.906250	20545.378906
1235.833008	20478.138672
1234.758789	20739.160156
1233.684570	20227.375000
1232.610352	20423.181641
1231.536133	20609.597656
1230.460938	20640.095703
1229.385742	20512.453125
1228.310547	20649.902344
1227.235352	20852.376953
1226.159180	20636.455078
1225.083008	20699.435547
1224.006836	20643.917969
1222.930664	20839.246094
1221.853516	20753.535156
1220.777344	21020.718750
1219.700195	20928.037109
1218.622070	21234.513672
1217.544922	21313.501953
1216.466797	21271.839844
1215.388672	21441.222656
1214.310547	21434.326172
1213.232422	21668.501953
1212.153320	21902.576172
1211.074219	22078.623047
1209.995117	22143.400391
1208.916016	22423.537109
1207.835938	22323.808594
1206.755859	22383.857422
1205.675781	22314.265625
1204.595703	22177.593750
1203.514648	22434.281250
1202.434570	22286.074219
1201.353516	22260.492188
1200.271484	22422.197266
1199.190430	22135.390625
1198.108398	21807.103516
1197.026367	21777.019531
1195.944336	21652.234375
1194.862305	21622.191406
1193.779297	21356.634766
1192.696289	21190.458984
1191.613281	21024.351563
1190.530273	20925.236328
1189.446289	20980.734375
1188.362305	20609.488281
1187.278320	20365.234375
1186.194336	20469.230469
1185.109375	20063.748047
1184.024414	19971.869141
1182.939453	19999.841797
1181.854492	20046.230469
1180.768555	19668.818359
1179.683594	19726.767578
1178.597656	19879.078125
1177.510742	19538.767578
1176.424805	19412.609375
1175.337891	19286.503906
1174.250977	19445.671875
1173.164063	19112.638672
1172.077148	19458.007813
1170.989258	19373.369141
1169.901367	19543.867188
1168.813477	19367.335938
1167.724609	19459.654297
1166.636719	19505.994141
1165.547852	19584.460938
1164.458984	19548.107422
1163.369141	19690.794922
1162.280273	19583.292969
1161.190430	19762.615234
1160.100586	19801.939453
1159.010742	20004.068359
1157.919922	20093.761719
1156.829102	19995.449219
1155.738281	20126.355469
1154.647461	20335.105469
1153.555664	20090.189453
1152.464844	20340.080078
1151.373047	20191.435547
1150.280273	20319.859375
1149.188477	20063.707031
1148.095703	19903.771484
1147.002930	20096.228516
1145.910156	20048.431641
1144.817383	19927.474609
1143.723633	19507.058594
1142.629883	19463.986328
1141.536133	19459.781250
1140.441406	19693.203125
1139.347656	19355.429688
1138.252930	19449.453125
1137.158203	19566.267578
1136.062500	19466.156250
1134.967773	19420.863281
1133.872070	19240.957031
1132.776367	19131.849609
1131.679688	19362.644531
1130.583984	19239.873047
1129.487305	19333.744141
1128.390625	19270.294922
1127.292969	19327.652344
1126.196289	19425.998047
1125.098633	19166.660156
1124.000977	18989.419922
1122.903320	19169.740234
1121.804688	19231.603516
1120.706055	19154.603516
1119.607422	19077.634766
1118.508789	19294.171875
1117.409180	18848.736328
1116.310547	19174.376953
1115.210938	18976.968750
1114.110352	18886.476563
1113.010742	19061.906250
1111.910156	18935.080078
1110.809570	18883.265625
1109.708984	18738.361328
1108.607422	18956.804688
1107.506836	18827.833984
1106.405273	18798.777344
1105.303711	18595.013672
1104.201172	18631.806641
1103.098633	18727.552734
1101.996094	18542.074219
1100.893555	18402.015625
1099.791016	18561.207031
1098.687500	18480.123047
1097.583984	18489.695313
1096.480469	18367.884766
1095.376953	18495.234375
1094.272461	18416.492188
1093.167969	18679.591797
1092.063477	18858.837891
1090.958008	18881.880859
1089.853516	18800.853516
1088.748047	18857.822266
1087.642578	19131.837891
1086.536133	19256.525391
1085.430664	19473.826172
1084.324219	19752.041016
1083.217773	19829.064453
1082.110352	19897.017578
1081.003906	20364.644531
1079.896484	20624.355469
1078.789063	20766.574219
1077.680664	20807.173828
1076.573242	20743.968750
1075.464844	20800.343750
1074.356445	20847.671875
1073.247070	20793.511719
1072.138672	20757.408203
1071.029297	20561.298828
1069.919922	20541.031250
1068.809570	20327.029297
1067.700195	19984.738281
1066.589844	19840.753906
1065.479492	19527.982422
1064.368164	19701.525391
1063.257813	19564.443359
1062.146484	19265.431641
1061.035156	19083.515625
1059.922852	19272.738281
1058.811523	19050.425781
1057.699219	18868.671875
1056.586914	18695.982422
1055.473633	18646.949219
1054.361328	18588.949219
1053.248047	18441.134766
1052.134766	18526.908203
1051.021484	18192.841797
1049.907227	18411.050781
1048.792969	18218.521484
1047.678711	18084.404297
1046.564453	18237.441406
1045.449219	18143.740234
1044.333984	18368.437500
1043.218750	18642.347656
1042.103516	18405.191406
1040.987305	18293.605469
1039.871094	18385.906250
1038.754883	18175.832031
1037.638672	18516.644531
1036.521484	18373.787109
1035.404297	18316.033203
1034.287109	18553.660156
1033.169922	18451.150391
1032.051758	18695.347656
1030.933594	18483.281250
1029.815430	18452.386719
1028.697266	18419.269531
1027.578125	18160.472656
1026.458984	18225.730469
1025.339844	18467.412109
1024.220703	18387.419922
1023.100586	18539.652344
1021.980469	18459.673828
1020.860352	18616.283203
1019.740234	18583.175781
1018.619141	18614.769531
1017.498047	18483.544922
1016.376953	18374.673828
1015.255859	18437.496094
1014.133789	18442.343750
1013.011719	18317.951172
1011.889648	18438.660156
1010.767578	18574.902344
1009.644531	18581.935547
1008.521484	18428.675781
1007.398438	18395.669922
1006.274414	18315.947266
1005.151367	18307.451172
1004.027344	18250.023438
1002.902344	18125.906250
1001.778320	18419.818359
1000.653320	18620.240234
999.528320	18560.566406
998.403320	18498.693359
997.278320	18534.583984
996.152344	18519.378906
995.026367	18652.939453
993.900391	18664.349609
992.773438	18604.734375
991.646484	18622.802734
990.519531	18960.306641
989.392578	19344.232422
988.265625	18770.080078
987.137695	18963.224609
986.009766	19213.906250
984.881836	19426.804688
983.752930	19294.003906
982.624023	19599.814453
981.495117	19555.607422
980.366211	19449.427734
979.236328	19113.095703
978.106445	19122.132813
976.976563	19259.484375
975.846680	19093.736328
974.715820	18894.886719
973.585938	18691.701172
972.454102	18603.550781
971.323242	18475.656250
970.191406	18535.626953
969.060547	18308.396484
967.927734	18439.046875
966.795898	18538.726563
965.663086	18335.923828
964.530273	18605.521484
963.397461	18396.171875
962.264648	18407.521484
961.130859	18560.023438
959.997070	18593.378906
958.863281	18393.029297
957.729492	18479.302734
956.594727	18629.443359
955.459961	18616.480469
954.325195	18464.755859
953.189453	18258.044922
952.053711	18575.417969
950.917969	18263.115234
949.782227	18212.830078
948.646484	18213.169922
947.509766	18165.113281
946.373047	18196.250000
945.235352	18244.958984
944.098633	18148.564453
942.960938	18287.367188
941.823242	18450.275391
940.685547	18019.986328
939.546875	18358.580078
938.408203	18218.343750
937.269531	18486.490234
936.129883	18532.839844
934.991211	18425.566406
933.851563	18533.333984
932.711914	18777.037109
931.571289	18590.833984
930.431641	18832.220703
929.291016	18939.792969
928.149414	18852.285156
927.008789	18839.304688
925.867188	18832.900391
924.725586	19091.472656
923.583984	18769.736328
922.441406	18686.734375
921.299805	18627.839844
920.157227	18676.177734
919.013672	18597.623047
917.871094	18232.609375
916.727539	18226.337891
915.583984	17927.148438
914.439453	18049.888672
913.295898	17967.181641
912.151367	17823.345703
911.006836	17825.902344
909.861328	17719.277344
908.716797	17813.539063
907.571289	17571.646484
906.424805	17582.978516
905.279297	17692.472656
904.132813	17500.929688
902.986328	17566.779297
901.839844	17809.185547
900.692383	17524.015625
899.545898	17696.587891
898.398438	17675.183594
897.250000	17686.458984
896.102539	17726.037109
894.954102	17719.876953
893.805664	17611.412109
892.656250	17753.255859
891.507813	17716.628906
890.358398	17769.199219
889.208984	17689.087891
888.058594	17626.404297
886.908203	17355.068359
885.758789	17396.800781
884.607422	17725.314453
883.457031	17593.160156
882.305664	17439.347656
881.154297	17550.498047
880.002930	17351.171875
878.850586	17334.242188
877.698242	17427.978516
876.545898	17463.097656
875.393555	17326.863281
874.240234	17359.818359
873.086914	17371.080078
871.933594	17250.123047
870.780273	17486.757813
869.625977	17428.652344
868.471680	17000.203125
867.317383	17093.810547
866.162109	17315.105469
865.007813	16928.089844
863.852539	17168.794922
862.696289	17108.667969
861.541016	17262.701172
860.384766	17295.564453
859.228516	16926.281250
858.072266	16771.150391
856.915039	17123.929688
855.757813	17042.279297
854.600586	17090.267578
853.442383	16987.064453
852.285156	17047.996094
851.126953	17171.496094
849.968750	17156.822266
848.809570	16926.392578
847.650391	16890.205078
846.491211	16925.203125
845.332031	17065.832031
844.171875	16982.210938
843.012695	17094.744141
841.851563	17002.531250
840.691406	16906.050781
839.530273	17091.748047
838.369141	17031.892578
837.208008	16956.992188
836.046875	17004.804688
834.884766	16777.167969
833.722656	16809.937500
832.560547	17025.503906
831.397461	16965.736328
830.234375	16942.541016
829.071289	17125.687500
827.908203	17119.654297
826.744141	16997.611328
825.580078	17212.833984
824.416016	17015.666016
823.251953	17039.712891
822.086914	17035.843750
820.921875	17263.732422
819.756836	17124.650391
818.590820	17240.876953
817.425781	17031.095703
816.259766	17067.960938
815.092773	17034.074219
813.926758	17047.347656
812.759766	16842.078125
811.592773	16881.089844
810.424805	17057.138672
809.257813	17036.132813
808.089844	16764.689453
806.920898	16906.400391
805.752930	16953.904297
804.583984	16905.126953
803.415039	17023.179688
802.246094	16920.951172
801.076172	17113.761719
799.906250	16958.128906
798.736328	16982.044922
797.566406	17095.666016
796.395508	16978.582031
795.224609	17220.259766
794.053711	17032.753906
792.881836	17186.804688
791.710938	17387.724609
790.538086	17631.218750
789.366211	17642.128906
788.194336	18090.146484
787.021484	17977.300781
785.848633	18094.685547
784.674805	18186.445313
783.500977	18165.253906
782.327148	18048.230469
781.153320	17956.808594
779.979492	17767.500000
778.804688	17608.072266
777.629883	17633.843750
776.454102	17459.626953
775.279297	17353.548828
774.103516	17409.125000
772.927734	17332.867188
771.750977	17456.435547
770.575195	17554.447266
769.398438	17620.544922
768.220703	17692.984375
767.043945	17816.351563
765.866211	18005.476563
764.688477	18194.511719
763.510742	18391.949219
762.332031	18587.171875
761.153320	18905.328125
759.974609	19503.257813
758.794922	19939.783203
757.616211	20501.166016
756.436523	21390.759766
755.255859	22426.132813
754.076172	24407.859375
752.895508	26314.556641
751.714844	28961.406250
750.533203	31245.080078
749.352539	34363.621094
748.170898	37076.625000
746.988281	39168.605469
745.806641	41018.535156
744.624023	41459.488281
743.441406	41758.609375
742.258789	40785.355469
741.075195	40336.535156
739.891602	39376.722656
738.708008	39042.468750
737.523438	38746.367188
736.339844	38376.515625
735.155273	38057.480469
733.969727	37907.386719
732.785156	36833.414063
731.599609	35291.730469
730.414063	33276.343750
729.227539	30998.376953
728.041992	28289.406250
726.855469	26268.576172
725.667969	24391.917969
724.481445	22634.058594
723.293945	21466.572266
722.106445	20345.933594
720.918945	19617.267578
719.730469	19328.703125
718.541992	18911.945313
717.353516	18282.957031
716.164063	18352.351563
714.975586	18125.300781
713.786133	17782.755859
712.595703	17663.101563
711.406250	17604.421875
710.215820	17358.843750
709.025391	17304.457031
707.833984	17088.447266
706.642578	17340.576172
705.451172	17244.261719
704.259766	17443.789063
703.068359	17446.070313
701.875977	17454.638672
700.683594	17563.830078
699.490234	17893.042969
698.297852	18305.921875
697.104492	18976.291016
695.910156	19355.216797
694.716797	19736.060547
693.522461	20143.943359
692.328125	20455.355469
691.132813	20325.091797
689.938477	20462.673828
688.743164	20091.931641
687.547852	19754.816406
686.351563	19411.582031
685.155273	19068.503906
683.958984	19049.484375
682.762695	18679.486328
681.565430	18363.964844
680.368164	18242.791016
679.170898	18088.269531
677.973633	18353.357422
676.775391	18344.953125
675.577148	17933.894531
674.378906	17956.875000
673.179688	17902.687500
671.980469	18025.734375
670.781250	17946.541016
669.581055	17511.033203
668.381836	17577.830078
667.181641	17525.869141
665.980469	17309.414063
664.780273	17118.042969
663.579102	17139.070313
662.377930	17118.466797
661.175781	17233.107422
659.973633	16883.839844
658.771484	16811.316406
657.569336	17152.566406
656.367188	17439.613281
655.164063	17379.476563
653.960938	17606.083984
652.756836	17560.474609
651.552734	17745.398438
650.348633	18127.478516
649.144531	18449.181641
647.939453	18538.306641
646.735352	18461.406250
645.529297	18587.822266
644.324219	18886.306641
643.118164	18811.449219
641.912109	18765.644531
640.706055	18493.968750
639.499023	18421.322266
638.292969	18091.849609
637.084961	17897.140625
635.877930	17847.453125
634.669922	17592.857422
633.461914	17404.603516
632.253906	17094.361328
631.044922	17075.927734
629.836914	16949.962891
628.626953	17045.287109
627.417969	16937.988281
626.208008	16789.406250
624.998047	16892.962891
623.788086	16953.089844
622.577148	16835.582031
621.366211	16883.304688
620.155273	16716.322266
618.944336	16607.201172
617.732422	16570.343750
616.520508	16496.373047
615.308594	16744.162109
614.095703	16583.583984
612.882813	16493.166016
611.669922	16411.033203
610.457031	16267.125000
609.243164	16152.121094
608.029297	16298.722656
606.815430	16247.591797
605.600586	16330.287109
604.385742	16507.613281
603.170898	16234.248047
601.955078	16436.197266
600.740234	16002.556641
599.524414	16334.001953
598.307617	16194.543945
597.091797	16359.317383
595.875000	16158.274414
594.658203	16427.744141
593.440430	16376.701172
592.222656	16596.714844
591.004883	16219.257813
589.787109	16137.509766
588.568359	16172.754883
587.349609	16290.039063
586.130859	16025.797852
584.912109	15831.392578
583.692383	15819.523438
582.472656	15901.933594
581.251953	15879.806641
580.032227	16033.862305
578.811523	16122.306641
577.589844	16354.041016
576.369141	16106.642578
575.147461	16307.571289
573.925781	16412.236328
572.703125	16899.394531
571.481445	17020.232422
570.258789	17175.775391
569.035156	17601.085938
567.812500	17901.527344
566.588867	18011.800781
565.365234	18279.320313
564.140625	18424.173828
562.916992	18374.978516
561.692383	18523.822266
560.466797	18556.261719
559.242188	18372.394531
558.016602	18296.732422
556.791016	17851.949219
555.564453	17656.136719
554.337891	17397.218750
553.111328	17095.617188
551.884766	16545.566406
550.657227	16509.130859
549.429688	16370.878906
548.202148	16206.218750
546.974609	16153.600586
545.746094	16098.969727
544.517578	16001.632813
543.288086	15751.765625
542.058594	15929.122070
540.829102	15905.090820
539.599609	15834.313477
538.370117	15767.632813
537.139648	16040.319336
535.909180	15620.139648
534.677734	15653.072266
533.446289	15507.300781
532.214844	15631.595703
530.983398	15627.966797
529.750977	15778.552734
528.519531	16127.876953
527.286133	15542.041016
526.053711	15714.844727
524.820313	15538.879883
523.586914	15577.833984
522.353516	15695.795898
521.119141	15791.417969
519.884766	15682.432617
518.650391	15616.019531
517.415039	15654.906250
516.179688	15556.145508
514.944336	15265.198242
513.708984	15352.689453
