#Wave		#Intensity
1585.210938	4048.683838
1584.209961	4136.101563
1583.208984	4087.799072
1582.208008	4044.509766
1581.206055	3963.796875
1580.204102	4047.825439
1579.202148	4056.967041
1578.200195	3976.301270
1577.198242	3930.585205
1576.195313	4116.784180
1575.192383	4018.704590
1574.189453	4075.199219
1573.186523	3972.184814
1572.182617	3958.904785
1571.178711	4080.140381
1570.174805	3939.832275
1569.170898	3854.359863
1568.166992	3945.668701
1567.162109	3964.762451
1566.158203	3946.522949
1565.153320	3868.582764
1564.147461	3927.477295
1563.142578	3884.388428
1562.136719	3769.214600
1561.130859	3890.237061
1560.125000	3919.254639
1559.119141	3863.778809
1558.113281	3902.726318
1557.106445	3949.108887
1556.099609	3990.505615
1555.092773	3885.406494
1554.084961	3926.799072
1553.078125	3891.242676
1552.070313	3900.361572
1551.062500	3872.267090
1550.054688	3851.624512
1549.045898	3828.510498
1548.038086	3810.364258
1547.029297	3916.154053
1546.020508	3915.343262
1545.011719	3934.353027
1544.001953	4017.757813
1542.992188	3950.059814
1541.982422	3924.481934
1540.972656	3891.487793
1539.962891	3957.506836
1538.952148	3842.861572
1537.942383	3812.378418
1536.931641	3908.053711
1535.919922	3833.056396
1534.909180	3876.766602
1533.897461	3816.637939
1532.886719	3885.046875
1531.874023	3770.581543
1530.862305	3834.030762
1529.850586	3904.863037
1528.837891	3889.238525
1527.825195	3831.649658
1526.812500	3922.184814
1525.799805	3795.513672
1524.786133	3937.831787
1523.772461	4001.153320
1522.758789	3825.218262
1521.745117	3918.125732
1520.731445	3779.259277
1519.716797	3906.644287
1518.702148	3814.657959
1517.687500	3929.663818
1516.672852	3904.217773
1515.657227	3893.558350
1514.642578	3905.062988
1513.626953	3909.177734
1512.610352	3930.518799
1511.594727	3841.120361
1510.579102	3891.988281
1509.562500	3923.157715
1508.545898	3917.427002
1507.529297	3877.277344
1506.511719	3842.060303
1505.494141	3816.688232
1504.477539	3943.667480
1503.458984	3851.956299
1502.441406	3858.526611
1501.423828	3975.595459
1500.405273	3913.394775
1499.386719	3782.491943
1498.368164	3843.059814
1497.348633	3783.378174
1496.330078	3964.119629
1495.310547	3884.817139
1494.291016	3996.805420
1493.271484	4030.298584
1492.250977	3906.912842
1491.231445	3849.741455
1490.210938	3836.693604
1489.190430	3838.348145
1488.168945	3825.307617
1487.148438	3831.860107
1486.126953	3919.192627
1485.105469	3862.088867
1484.083984	3973.847900
1483.061523	3853.148438
1482.040039	3854.795654
1481.017578	3871.114502
1479.995117	3904.540771
1478.971680	3840.176514
1477.949219	3858.931396
1476.925781	3823.923584
1475.902344	3955.047119
1474.878906	4064.134277
1473.855469	3887.476074
1472.831055	4025.828125
1471.806641	4215.380859
1470.782227	3982.672119
1469.757813	4011.124268
1468.733398	4022.489014
1467.708008	4031.409912
1466.682617	4008.628662
1465.657227	4034.613037
1464.631836	3987.466797
1463.605469	4137.722168
1462.579102	4022.356689
1461.552734	4101.903809
1460.526367	4234.994141
1459.500000	4146.462402
1458.472656	4084.744629
1457.445313	4215.321289
1456.417969	4112.248535
1455.390625	4145.453613
1454.362305	4249.180664
1453.334961	4219.117188
1452.306641	4140.440918
1451.277344	4064.227539
1450.249023	4167.884766
1449.219727	4130.572754
1448.191406	4059.266846
1447.162109	4121.570801
1446.131836	4043.011230
1445.102539	4236.390137
1444.072266	4029.195557
1443.041992	3970.117188
1442.011719	4112.438965
1440.981445	4160.099121
1439.950195	4168.935059
1438.918945	4153.520508
1437.887695	4218.110840
1436.856445	4166.336426
1435.825195	4189.702637
1434.792969	4188.831543
1433.760742	4086.228760
1432.728516	4201.620117
1431.696289	4084.529785
1430.663086	4008.639404
1429.629883	4039.268066
1428.596680	4023.910156
1427.563477	3926.306396
1426.530273	3862.604492
1425.496094	3968.200195
1424.461914	3967.374512
1423.427734	3923.040283
1422.393555	3972.973633
1421.358398	3885.165771
1420.323242	3930.254395
1419.288086	3917.360596
1418.252930	3861.008545
1417.217773	3833.649414
1416.181641	3881.124023
1415.145508	3897.208008
1414.109375	3879.508057
1413.073242	3866.639648
1412.036133	3894.773926
1411.000000	3930.129639
1409.962891	3823.243652
1408.924805	3836.907959
1407.887695	3824.060547
1406.849609	3861.809570
1405.812500	3952.532227
1404.773438	3869.832764
1403.735352	3816.059082
1402.697266	3950.061523
1401.658203	3816.875000
1400.619141	3900.292969
1399.580078	3930.752686
1398.540039	3939.553467
1397.500977	3931.518311
1396.460938	3971.567871
1395.420898	3925.071289
1394.380859	3854.562988
1393.339844	3954.667725
1392.298828	3838.542236
1391.257813	3883.371582
1390.216797	3798.523193
1389.175781	3833.739258
1388.133789	3847.339844
1387.091797	3776.948730
1386.049805	3783.357422
1385.007813	3945.671387
1383.964844	3976.022705
1382.922852	3886.481934
1381.879883	3784.992920
1380.835938	3930.393799
1379.792969	3912.800293
1378.749023	3983.850342
1377.706055	3889.609863
1376.661133	3900.770020
1375.617188	3974.171387
1374.573242	3970.947266
1373.528320	4096.950195
1372.483398	3875.976807
1371.438477	3989.986084
1370.392578	4041.766602
1369.347656	3890.283691
1368.301758	3918.156982
1367.255859	3836.074951
1366.208984	3935.634766
1365.163086	3853.582764
1364.116211	4000.868408
1363.069336	3942.717285
1362.022461	3989.643799
1360.974609	3855.132324
1359.927734	3816.140137
1358.879883	3882.151367
1357.832031	3964.833984
1356.783203	3918.687256
1355.735352	3975.096436
1354.686523	3902.741455
1353.637695	3918.609131
1352.588867	3984.514404
1351.539063	3928.880371
1350.490234	3844.684082
1349.440430	3989.155029
1348.390625	3971.651367
1347.339844	3820.841797
1346.290039	3991.407227
1345.239258	4092.892578
1344.188477	4068.243408
1343.137695	4024.575684
1342.085938	4049.890625
1341.034180	4032.397705
1339.982422	4038.683105
1338.930664	4033.082520
1337.878906	4113.023438
1336.826172	4090.779785
1335.773438	4165.924316
1334.720703	4157.925781
1333.667969	4052.592529
1332.614258	4103.960938
1331.561523	4034.278809
1330.507813	4180.533203
1329.453125	4153.562012
1328.399414	4069.682861
1327.344727	4080.683350
1326.290039	4098.790527
1325.235352	4088.448730
1324.180664	4059.153809
1323.125000	4048.823975
1322.070313	4071.658936
1321.014648	4111.061035
1319.958008	4129.137207
1318.902344	4109.331543
1317.845703	4146.333496
1316.789063	4012.957520
1315.732422	4097.275879
1314.675781	4039.650391
1313.618164	3932.391357
1312.560547	4104.145996
1311.502930	4018.190674
1310.445313	4033.886475
1309.386719	4042.487549
1308.329102	3977.858154
1307.270508	4078.571045
1306.210938	4051.739258
1305.152344	3954.098389
1304.092773	4061.832520
1303.033203	4075.134277
1301.973633	4093.148682
1300.914063	4120.589355
1299.853516	4058.408203
1298.792969	4026.902588
1297.732422	3929.409180
1296.671875	4027.560791
1295.611328	4090.327881
1294.549805	3948.123779
1293.488281	3893.121338
1292.426758	3974.713623
1291.364258	3867.936035
1290.302734	3977.742920
1289.240234	3873.362305
1288.177734	3790.199707
1287.114258	3928.179199
1286.051758	3828.577637
1284.988281	3881.846436
1283.924805	3826.959717
1282.861328	3847.302979
1281.796875	3787.746582
1280.732422	3871.517822
1279.667969	3816.678467
1278.603516	3834.657227
1277.539063	3798.630127
1276.473633	3783.743164
1275.408203	3876.812256
1274.342773	3894.761963
1273.277344	3917.395020
1272.210938	3864.970459
1271.145508	3882.910156
1270.079102	3793.006348
1269.011719	3789.859375
1267.945313	3828.892090
1266.877930	3720.313721
1265.810547	3829.612305
1264.743164	3798.357666
1263.674805	3743.703369
1262.607422	3789.725586
1261.539063	3669.567627
1260.470703	3741.322998
1259.401367	3726.493896
1258.333008	3711.670654
1257.263672	3790.385742
1256.194336	3796.594971
1255.125000	3784.102783
1254.054688	3671.132813
1252.985352	3803.523438
1251.915039	3755.999756
1250.843750	3806.579346
1249.773438	3763.744141
1248.702148	3734.932617
1247.630859	3799.486816
1246.559570	3763.679443
1245.488281	3688.228516
1244.416016	3806.394531
1243.343750	3807.917480
1242.271484	3730.173096
1241.199219	3736.372559
1240.125977	3674.988281
1239.053711	3704.495117
1237.980469	3682.742676
1236.906250	3754.154297
1235.833008	3739.385010
1234.758789	3640.817871
1233.684570	3686.590820
1232.610352	3848.688721
1231.536133	3780.403564
1230.460938	3651.673584
1229.385742	3736.936035
1228.310547	3682.666748
1227.235352	3823.671631
1226.159180	3690.393066
1225.083008	3654.755127
1224.006836	3672.559326
1222.930664	3729.837402
1221.853516	3684.925049
1220.777344	3698.067871
1219.700195	3752.981689
1218.622070	3640.799072
1217.544922	3633.062256
1216.466797	3736.662842
1215.388672	3677.890869
1214.310547	3628.417725
1213.232422	3694.864258
1212.153320	3745.060059
1211.074219	3670.116211
1209.995117	3752.726074
1208.916016	3768.136230
1207.835938	3795.116943
1206.755859	3785.045654
1205.675781	3733.317139
1204.595703	3760.287109
1203.514648	3703.958252
1202.434570	3666.157471
1201.353516	3598.309570
1200.271484	3701.581543
1199.190430	3747.020264
1198.108398	3605.244141
1197.026367	3676.099609
1195.944336	3698.413086
1194.862305	3575.213867
1193.779297	3539.812012
1192.696289	3795.306152
1191.613281	3538.295410
1190.530273	3689.838135
1189.446289	3543.700195
1188.362305	3702.095947
1187.278320	3708.220459
1186.194336	3642.868164
1185.109375	3582.153809
1184.024414	3655.133301
1182.939453	3714.256348
1181.854492	3676.601074
1180.768555	3650.477539
1179.683594	3628.969971
1178.597656	3642.003662
1177.510742	3599.791748
1176.424805	3720.980225
1175.337891	3524.624023
1174.250977	3613.573486
1173.164063	3697.885010
1172.077148	3644.208984
1170.989258	3696.295410
1169.901367	3706.991699
1168.813477	3568.332275
1167.724609	3700.802979
1166.636719	3670.149414
1165.547852	3611.954346
1164.458984	3565.262451
1163.369141	3631.056885
1162.280273	3632.569824
1161.190430	3652.436035
1160.100586	3580.543213
1159.010742	3607.291016
1157.919922	3544.609375
1156.829102	3573.645020
1155.738281	3669.129395
1154.647461	3672.920898
1153.555664	3667.547607
1152.464844	3678.208252
1151.373047	3507.969971
1150.280273	3633.125000
1149.188477	3643.785156
1148.095703	3659.017090
1147.002930	3562.138916
1145.910156	3593.392578
1144.817383	3620.058838
1143.723633	3614.704590
1142.629883	3675.641602
1141.536133	3599.431152
1140.441406	3568.950195
1139.347656	3556.757080
1138.252930	3503.459473
1137.158203	3833.791992
1136.062500	3588.694336
1134.967773	3562.812012
1133.872070	3612.243164
1132.776367	3627.431641
1131.679688	3692.793213
1130.583984	3623.581543
1129.487305	3677.515381
1128.390625	3683.557617
1127.292969	3657.691650
1126.196289	3684.240967
1125.098633	3587.769043
1124.000977	3623.431152
1122.903320	3624.922852
1121.804688	3615.031494
1120.706055	3634.731689
1119.607422	3645.321045
1118.508789	3655.905518
1117.409180	3582.328857
1116.310547	3627.031738
1115.210938	3646.706543
1114.110352	3691.375488
1113.010742	3622.398682
1111.910156	3533.003174
1110.809570	3577.666748
1109.708984	3726.778564
1108.607422	3664.664307
1107.506836	3647.978027
1106.405273	3674.420166
1105.303711	3591.935059
1104.201172	3559.394287
1103.098633	3558.620605
1101.996094	3487.551514
1100.893555	3638.688477
1099.791016	3832.824707
1098.687500	3632.573242
1097.583984	3631.782959
1096.480469	3624.197266
1095.376953	3609.820557
1094.272461	3715.448975
1093.167969	3644.467041
1092.063477	3537.305176
1090.958008	3697.183350
1089.853516	3700.902100
1088.748047	3582.488770
1087.642578	3538.745361
1086.536133	3599.012451
1085.430664	3593.707520
1084.324219	3495.756592
1083.217773	3605.695313
1082.110352	3654.600342
1081.003906	3687.676270
1079.896484	3707.191162
1078.789063	3683.809570
1077.680664	3536.316895
1076.573242	3600.976074
1075.464844	3613.724121
1074.356445	3655.784912
1073.247070	3639.202637
1072.138672	3633.898926
1071.029297	3610.566895
1069.919922	3560.205078
1068.809570	3541.404297
1067.700195	3574.414551
1066.589844	3704.238037
1065.479492	3653.898438
1064.368164	3619.336670
1063.257813	3611.793457
1062.146484	3653.750000
1061.035156	3695.687744
1059.922852	3649.901367
1058.811523	3678.330811
1057.699219	3652.798584
1056.586914	3622.782227
1055.473633	3561.322266
1054.361328	3569.527344
1053.248047	3573.236816
1052.134766	3637.570313
1051.021484	3692.895508
1049.907227	3609.041748
1048.792969	3671.080322
1047.678711	3533.424805
1046.564453	3570.779541
1045.449219	3567.753174
1044.333984	3708.213867
1043.218750	3604.291992
1042.103516	3672.970703
1040.987305	3602.708740
1039.871094	3552.637451
1038.754883	3643.676514
1037.638672	3584.661377
1036.521484	3592.827393
1035.404297	3589.799561
1034.287109	3653.898682
1033.169922	3624.013428
1032.051758	3694.785889
1030.933594	3709.625488
1029.815430	3608.208496
1028.697266	3520.246338
1027.578125	3532.878906
1026.458984	3574.548828
1025.339844	3640.769531
1024.220703	3686.862793
1023.100586	3585.583008
1021.980469	3656.220947
1020.860352	3664.341553
1019.740234	3697.000977
1018.619141	3624.805176
1017.498047	3559.331299
1016.376953	3542.938721
1015.255859	3633.553223
1014.133789	3594.864014
1013.011719	3569.560547
1011.889648	3718.028564
1010.767578	3581.348145
1009.644531	3616.184814
1008.521484	3630.969971
1007.398438	3527.784180
1006.274414	3593.762207
1005.151367	3546.248291
1004.027344	3507.652344
1002.902344	3611.394043
1001.778320	3608.372314
1000.653320	3634.247803
999.528320	3682.334473
998.403320	3654.858398
997.278320	3660.713623
996.152344	3595.500000
995.026367	3610.246582
993.900391	3644.964600
992.773438	3664.131836
991.646484	3574.566406
990.519531	3478.385254
989.392578	3597.379639
988.265625	3543.365479
987.137695	3480.507568
986.009766	3617.152588
984.881836	3576.464355
983.752930	3653.210938
982.624023	3532.795166
981.495117	3693.664795
980.366211	3599.859863
979.236328	3665.464600
978.106445	3593.836670
976.976563	3595.251465
975.846680	3738.231445
974.715820	3719.709473
973.585938	3661.397705
972.454102	3618.584961
971.323242	3717.231445
970.191406	3546.272705
969.060547	3538.857422
967.927734	3582.241455
966.795898	3705.095459
965.663086	3728.554688
964.530273	3648.271240
963.397461	3585.675781
962.264648	3701.800293
961.130859	3531.146240
959.997070	3757.485352
958.863281	3650.827881
957.729492	3603.728760
956.594727	3658.016846
955.459961	3743.124268
954.325195	3678.413818
953.189453	3657.774902
952.053711	3678.976563
950.917969	3629.730713
949.782227	3620.118896
948.646484	3531.304199
947.509766	3521.718018
946.373047	3648.486572
945.235352	3583.909912
944.098633	3673.237549
942.960938	3668.022461
941.823242	3544.157959
940.685547	3626.843506
939.546875	3584.304688
938.408203	3620.832520
937.269531	3558.555908
936.129883	3577.514160
934.991211	3640.349609
933.851563	3694.381348
932.711914	3748.388916
931.571289	3563.353027
930.431641	3663.404053
929.291016	3732.724121
928.149414	3646.426025
927.008789	3693.809570
925.867188	3697.363770
924.725586	3604.561035
923.583984	3686.951660
922.441406	3574.491699
921.299805	3659.039795
920.157227	3625.401611
919.013672	3650.838867
917.871094	3608.468994
916.727539	3566.117676
915.583984	3545.645020
914.439453	3503.326172
913.295898	3712.300049
912.151367	3571.659668
911.006836	3586.146729
909.861328	3583.158936
908.716797	3682.774658
907.571289	3559.726074
906.424805	3683.304443
905.279297	3680.296143
904.132813	3786.342529
902.986328	3628.490479
901.839844	3671.277588
900.692383	3622.501953
899.545898	3541.061035
898.398438	3712.376953
897.250000	3744.214844
896.102539	3662.800293
894.954102	3725.114746
893.805664	3724.277344
892.656250	3701.677979
891.507813	3757.413574
890.358398	3756.568359
889.208984	3720.927979
888.058594	3643.993164
886.908203	3647.520508
885.758789	3522.824951
884.607422	3717.579590
883.457031	3679.814209
882.305664	3631.206543
881.154297	3745.466797
880.002930	3555.763916
878.850586	3624.412598
877.698242	3664.822510
876.545898	3650.980713
875.393555	3678.352539
874.240234	3616.809570
873.086914	3598.651123
871.933594	3649.856689
870.780273	3714.039795
869.625977	3572.386475
868.471680	3647.387207
867.317383	3666.052734
866.162109	3587.288086
865.007813	3618.944824
863.852539	3592.160400
862.696289	3667.070557
861.541016	3579.723389
860.384766	3587.564697
859.228516	3601.888184
858.072266	3652.950684
856.915039	3578.650391
855.757813	3713.955078
854.600586	3672.074707
853.442383	3617.255615
852.285156	3696.323242
851.126953	3576.765381
849.968750	3580.272461
848.809570	3594.565918
847.650391	3619.637939
846.491211	3620.975342
845.332031	3589.969971
844.171875	3612.869385
843.012695	3547.396484
841.851563	3598.305420
840.691406	3599.644775
839.530273	3635.442139
838.369141	3585.094727
837.208008	3573.518799
836.046875	3747.040039
834.884766	3597.720215
833.722656	3500.098145
832.560547	3628.350830
831.397461	3528.614990
830.234375	3585.859375
829.071289	3544.209229
827.908203	3515.470459
826.744141	3525.414551
825.580078	3541.797363
824.416016	3609.708984
823.251953	3632.505127
822.086914	3597.338379
820.921875	3549.311768
819.756836	3632.176758
818.590820	3618.482178
817.425781	3585.493652
816.259766	3541.800293
815.092773	3534.564941
813.926758	3655.911133
812.759766	3550.098389
811.592773	3587.847412
810.424805	3619.154297
809.257813	3575.510986
808.089844	3469.811523
806.920898	3558.904297
805.752930	3577.350830
804.583984	3488.834717
803.415039	3494.456543
802.246094	3482.970703
801.076172	3612.572510
799.906250	3494.208008
798.736328	3538.281982
797.566406	3569.518555
796.395508	3500.364258
795.224609	3550.811279
794.053711	3449.671631
792.881836	3474.496094
791.710938	3529.181152
790.538086	3583.841064
789.366211	3472.121094
788.194336	3603.530029
787.021484	3511.041748
785.848633	3476.140625
784.674805	3571.234131
783.500977	3444.730469
782.327148	3505.709961
781.153320	3477.228516
779.979492	3565.847412
778.804688	3490.540283
777.629883	3553.580322
776.454102	3601.699463
775.279297	3447.738770
774.103516	3572.411377
772.927734	3499.313232
771.750977	3485.760986
770.575195	3484.964844
769.398438	3550.027832
768.220703	3523.728760
767.043945	3448.600098
765.866211	3526.364258
764.688477	3534.048340
763.510742	3505.653564
762.332031	3494.244141
761.153320	3582.531250
759.974609	3543.540771
758.794922	3538.489990
757.616211	3414.741455
756.436523	3490.249756
755.255859	3569.960693
754.076172	3541.607178
752.895508	3517.501953
751.714844	3643.729736
750.533203	3596.327393
749.352539	3665.340332
748.170898	3603.143799
746.988281	3526.168457
745.806641	3614.182129
744.624023	3653.526123
743.441406	3568.136230
742.258789	3622.265381
741.075195	3724.965332
739.891602	3779.033203
738.708008	3814.069092
737.523438	3933.544678
736.339844	4023.412354
735.155273	4193.435059
733.969727	4272.651855
732.785156	4322.298828
731.599609	4243.274902
730.414063	4200.131836
729.227539	4159.115723
728.041992	4014.849121
726.855469	3969.679688
725.667969	3789.710693
724.481445	3814.113770
723.293945	3783.759766
722.106445	3751.314209
720.918945	3647.325928
719.730469	3572.843262
718.541992	3635.132568
717.353516	3649.020020
716.164063	3585.100586
714.975586	3563.254883
713.786133	3539.317139
712.595703	3454.453857
711.406250	3569.201904
710.215820	3503.272949
709.025391	3470.970459
707.833984	3476.470459
706.642578	3547.031494
705.451172	3516.839111
704.259766	3469.876953
703.068359	3481.663330
701.875977	3482.959473
700.683594	3471.676025
699.490234	3485.548828
698.297852	3453.314941
697.104492	3465.090088
695.910156	3487.332031
694.716797	3494.905518
693.522461	3462.697998
692.328125	3430.505127
691.132813	3551.084229
689.938477	3489.596191
688.743164	3536.899414
687.547852	3487.989014
686.351563	3549.904785
685.155273	3584.619629
683.958984	3433.337158
682.762695	3432.546143
681.565430	3536.190918
680.368164	3587.581787
679.170898	3459.402344
677.973633	3512.874023
676.775391	3520.411377
675.577148	3534.203857
674.378906	3508.359131
673.179688	3634.756348
671.980469	3596.390625
670.781250	3599.729980
669.581055	3492.620850
668.381836	3606.403320
667.181641	3663.893799
665.980469	3563.090332
664.780273	3599.743896
663.579102	3727.966309
662.377930	3777.050537
661.175781	3649.265869
659.973633	3781.547607
658.771484	3699.571045
657.569336	3756.931885
656.367188	3722.806641
655.164063	3815.463379
653.960938	3692.000488
652.756836	3738.922852
651.552734	3681.988525
650.348633	3805.711426
649.144531	3736.333008
647.939453	3760.373047
646.735352	3684.812256
645.529297	3731.669678
644.324219	3763.988770
643.118164	3713.358643
641.912109	3693.844727
640.706055	3705.425537
639.499023	3727.360107
638.292969	3714.069824
637.084961	3638.657227
635.877930	3644.027344
634.669922	3634.905029
633.461914	3683.732910
632.253906	3614.602783
631.044922	3640.658203
629.836914	3627.407715
628.626953	3589.352051
627.417969	3642.267090
626.208008	3647.624512
624.998047	3533.141602
623.788086	3586.031982
622.577148	3560.419922
621.366211	3559.595947
620.155273	3622.764160
618.944336	3590.969238
617.732422	3594.264893
616.520508	3593.432861
615.308594	3617.349365
614.095703	3604.140869
612.882813	3648.656982
611.669922	3571.558594
610.457031	3566.610840
609.243164	3584.324707
608.029297	3556.721436
606.815430	3636.198975
605.600586	3662.117920
604.385742	3494.567627
603.170898	3557.543213
601.955078	3610.203613
600.740234	3562.065186
599.524414	3526.285645
598.307617	3517.246094
597.091797	3530.817627
595.875000	3606.023926
594.658203	3414.144287
593.440430	3565.331543
592.222656	3511.119873
591.004883	3627.316650
589.787109	3636.737549
588.568359	3588.701904
587.349609	3604.281250
586.130859	3595.242188
584.912109	3588.257568
583.692383	3605.875488
582.472656	3539.456055
581.251953	3516.096436
580.032227	3640.241699
578.811523	3528.802734
577.589844	3538.222412
576.369141	3498.507080
575.147461	3575.467773
573.925781	3545.992432
572.703125	3606.540771
571.481445	3530.031494
570.258789	3533.302246
569.035156	3679.669678
567.812500	3574.583008
566.588867	3637.096680
565.365234	3646.467041
564.140625	3690.553223
562.916992	3652.943115
561.692383	3554.107666
560.466797	3639.002686
559.242188	3597.349121
558.016602	3635.274414
556.791016	3618.114746
555.564453	3586.689453
554.337891	3720.403320
553.111328	3619.673096
551.884766	3675.886719
550.657227	3666.885010
549.429688	3716.951172
548.202148	3738.487061
546.974609	3678.583008
545.746094	3704.187744
544.517578	3691.119141
543.288086	3730.948975
542.058594	3622.288818
540.829102	3684.482910
539.599609	3687.693359
538.370117	3721.388916
537.139648	3775.388184
535.909180	3640.433105
534.677734	3720.828857
533.446289	3719.965088
532.214844	3753.613037
530.983398	3783.185547
529.750977	3723.462402
528.519531	3726.655273
527.286133	3768.382080
526.053711	3779.673584
524.820313	3817.313965
523.586914	3875.204102
522.353516	3985.751465
521.119141	3958.490234
519.884766	3971.748779
518.650391	3762.261963
517.415039	3773.534912
516.179688	3813.137939
514.944336	3804.158447
513.708984	3714.262451
