#Wave		#Intensity
1585.210938	20760.431641
1584.209961	21087.625000
1583.208984	20918.445313
1582.208008	20766.810547
1581.206055	20637.703125
1580.204102	21110.083984
1579.202148	20679.054688
1578.200195	20819.455078
1577.198242	20687.947266
1576.195313	20302.154297
1575.192383	20781.589844
1574.189453	20535.513672
1573.186523	20319.445313
1572.182617	20631.648438
1571.178711	20238.791016
1570.174805	20513.525391
1569.170898	19854.435547
1568.166992	20094.281250
1567.162109	20299.185547
1566.158203	20227.796875
1565.153320	20238.535156
1564.147461	20234.343750
1563.142578	20399.255859
1562.136719	20240.880859
1561.130859	20174.546875
1560.125000	20560.554688
1559.119141	20456.906250
1558.113281	20636.503906
1557.106445	21059.429688
1556.099609	21156.880859
1555.092773	21770.689453
1554.084961	21619.734375
1553.078125	22002.396484
1552.070313	22367.531250
1551.062500	22839.181641
1550.054688	22668.285156
1549.045898	23660.392578
1548.038086	24116.605469
1547.029297	24582.542969
1546.020508	25365.478516
1545.011719	25513.833984
1544.001953	26591.017578
1542.992188	27373.048828
1541.982422	28167.132813
1540.972656	28710.863281
1539.962891	29172.691406
1538.952148	29676.394531
1537.942383	29977.021484
1536.931641	30042.544922
1535.919922	29751.937500
1534.909180	29607.320313
1533.897461	28800.289063
1532.886719	28487.873047
1531.874023	28346.076172
1530.862305	27258.179688
1529.850586	26662.238281
1528.837891	26269.027344
1527.825195	25243.955078
1526.812500	24663.605469
1525.799805	24009.460938
1524.786133	23693.609375
1523.772461	23234.810547
1522.758789	22840.326172
1521.745117	22638.333984
1520.731445	22061.703125
1519.716797	21919.109375
1518.702148	21887.462891
1517.687500	21446.847656
1516.672852	21797.111328
1515.657227	21541.400391
1514.642578	21556.636719
1513.626953	21635.871094
1512.610352	21552.632813
1511.594727	21663.820313
1510.579102	21710.996094
1509.562500	21676.984375
1508.545898	21588.882813
1507.529297	21675.380859
1506.511719	21449.660156
1505.494141	21504.199219
1504.477539	21833.912109
1503.458984	21758.148438
1502.441406	21795.394531
1501.423828	21783.513672
1500.405273	21693.072266
1499.386719	21855.488281
1498.368164	21482.851563
1497.348633	21605.984375
1496.330078	21446.966797
1495.310547	21746.636719
1494.291016	21585.201172
1493.271484	21507.183594
1492.250977	21796.847656
1491.231445	21601.191406
1490.210938	21829.464844
1489.190430	21491.810547
1488.168945	21418.783203
1487.148438	21798.755859
1486.126953	21375.634766
1485.105469	21941.460938
1484.083984	22064.154297
1483.061523	21893.222656
1482.040039	21842.210938
1481.017578	21945.281250
1479.995117	22077.648438
1478.971680	22256.400391
1477.949219	22689.246094
1476.925781	22755.400391
1475.902344	22931.455078
1474.878906	23495.777344
1473.855469	23639.859375
1472.831055	24062.197266
1471.806641	24708.917969
1470.782227	25150.378906
1469.757813	25401.347656
1468.733398	26142.519531
1467.708008	26768.757813
1466.682617	27372.789063
1465.657227	28113.085938
1464.631836	28994.439453
1463.605469	29773.080078
1462.579102	30607.431641
1461.552734	31482.841797
1460.526367	32869.304688
1459.500000	33454.136719
1458.472656	34204.257813
1457.445313	34949.199219
1456.417969	35703.562500
1455.390625	35844.550781
1454.362305	35834.675781
1453.334961	35856.417969
1452.306641	35153.632813
1451.277344	34553.226563
1450.249023	33488.890625
1449.219727	32949.820313
1448.191406	31378.544922
1447.162109	30473.394531
1446.131836	29527.337891
1445.102539	28530.689453
1444.072266	27670.378906
1443.041992	26912.347656
1442.011719	26273.511719
1440.981445	25668.902344
1439.950195	25125.171875
1438.918945	24484.677734
1437.887695	24540.193359
1436.856445	24089.132813
1435.825195	23817.574219
1434.792969	23834.427734
1433.760742	23294.167969
1432.728516	22693.591797
1431.696289	22894.673828
1430.663086	22652.685547
1429.629883	22413.218750
1428.596680	22369.843750
1427.563477	22142.626953
1426.530273	22055.787109
1425.496094	21594.166016
1424.461914	21379.337891
1423.427734	21021.984375
1422.393555	21034.527344
1421.358398	20894.845703
1420.323242	20699.662109
1419.288086	20748.486328
1418.252930	20478.558594
1417.217773	20259.437500
1416.181641	20672.777344
1415.145508	20586.427734
1414.109375	20586.966797
1413.073242	20611.625000
1412.036133	20785.792969
1411.000000	20639.207031
1409.962891	20962.753906
1408.924805	21148.785156
1407.887695	21392.570313
1406.849609	21718.162109
1405.812500	22091.789063
1404.773438	22532.685547
1403.735352	23151.560547
1402.697266	23127.478516
1401.658203	23649.703125
1400.619141	24123.587891
1399.580078	24375.958984
1398.540039	24587.335938
1397.500977	24695.224609
1396.460938	24581.890625
1395.420898	24814.718750
1394.380859	24586.054688
1393.339844	24439.173828
1392.298828	24474.910156
1391.257813	24320.906250
1390.216797	24188.574219
1389.175781	24236.337891
1388.133789	24183.279297
1387.091797	24043.853516
1386.049805	24086.816406
1385.007813	24362.421875
1383.964844	24465.250000
1382.922852	24783.814453
1381.879883	24908.082031
1380.835938	25111.380859
1379.792969	25410.439453
1378.749023	25841.126953
1377.706055	25931.531250
1376.661133	26117.677734
1375.617188	26093.068359
1374.573242	26465.800781
1373.528320	26742.652344
1372.483398	26851.906250
1371.438477	26815.195313
1370.392578	27185.066406
1369.347656	27308.500000
1368.301758	27188.041016
1367.255859	27280.347656
1366.208984	27202.953125
1365.163086	27574.738281
1364.116211	27810.214844
1363.069336	27677.828125
1362.022461	27638.609375
1360.974609	27816.628906
1359.927734	27887.177734
1358.879883	28205.845703
1357.832031	28118.832031
1356.783203	28351.451172
1355.735352	28579.203125
1354.686523	28978.511719
1353.637695	29268.005859
1352.588867	29502.566406
1351.539063	30199.246094
1350.490234	30357.283203
1349.440430	31732.240234
1348.390625	32387.531250
1347.339844	32821.152344
1346.290039	33525.917969
1345.239258	34511.175781
1344.188477	34991.652344
1343.137695	35609.882813
1342.085938	36313.464844
1341.034180	37157.023438
1339.982422	37522.433594
1338.930664	37958.984375
1337.878906	38568.800781
1336.826172	38940.804688
1335.773438	39215.265625
1334.720703	39520.480469
1333.667969	39153.695313
1332.614258	39007.804688
1331.561523	38755.179688
1330.507813	38305.738281
1329.453125	37782.941406
1328.399414	37234.277344
1327.344727	36920.582031
1326.290039	36782.437500
1325.235352	35838.511719
1324.180664	35025.308594
1323.125000	35091.386719
1322.070313	35216.652344
1321.014648	34932.175781
1319.958008	34782.773438
1318.902344	34380.144531
1317.845703	34193.050781
1316.789063	33909.019531
1315.732422	33757.578125
1314.675781	32901.390625
1313.618164	32568.146484
1312.560547	31759.847656
1311.502930	31178.794922
1310.445313	29974.117188
1309.386719	29039.283203
1308.329102	28480.423828
1307.270508	27494.339844
1306.210938	26940.759766
1305.152344	26344.917969
1304.092773	25697.404297
1303.033203	25361.634766
1301.973633	24841.990234
1300.914063	24775.427734
1299.853516	24411.761719
1298.792969	24107.189453
1297.732422	23911.173828
1296.671875	23703.455078
1295.611328	23957.634766
1294.549805	23684.031250
1293.488281	23820.343750
1292.426758	23612.812500
1291.364258	23697.287109
1290.302734	23826.445313
1289.240234	23506.083984
1288.177734	23604.638672
1287.114258	23512.621094
1286.051758	23448.861328
1284.988281	23669.623047
1283.924805	23323.767578
1282.861328	23525.658203
1281.796875	23487.789063
1280.732422	23280.789063
1279.667969	23308.750000
1278.603516	23695.974609
1277.539063	23486.708984
1276.473633	23474.699219
1275.408203	23953.162109
1274.342773	23887.089844
1273.277344	23736.599609
1272.210938	23905.123047
1271.145508	23925.855469
1270.079102	24021.591797
1269.011719	24035.255859
1267.945313	24013.761719
1266.877930	23856.394531
1265.810547	23558.556641
1264.743164	23422.425781
1263.674805	23354.248047
1262.607422	22920.933594
1261.539063	22773.318359
1260.470703	22319.250000
1259.401367	22314.517578
1258.333008	21961.302734
1257.263672	21704.109375
1256.194336	21386.238281
1255.125000	21054.476563
1254.054688	20813.990234
1252.985352	20547.904297
1251.915039	20039.005859
1250.843750	19964.691406
1249.773438	19708.291016
1248.702148	19505.685547
1247.630859	19303.166016
1246.559570	19219.732422
1245.488281	18980.031250
1244.416016	18903.693359
1243.343750	18743.441406
1242.271484	18627.550781
1241.199219	18779.757813
1240.125977	18451.843750
1239.053711	18419.960938
1237.980469	18343.832031
1236.906250	18381.847656
1235.833008	18424.503906
1234.758789	18343.763672
1233.684570	18460.882813
1232.610352	18277.781250
1231.536133	18262.257813
1230.460938	18516.542969
1229.385742	18324.240234
1228.310547	18350.560547
1227.235352	18581.417969
1226.159180	18291.615234
1225.083008	18506.119141
1224.006836	18516.111328
1222.930664	18542.355469
1221.853516	18621.990234
1220.777344	18859.449219
1219.700195	18811.328125
1218.622070	19160.023438
1217.544922	19304.412109
1216.466797	19534.558594
1215.388672	19493.285156
1214.310547	20024.691406
1213.232422	20416.791016
1212.153320	20345.222656
1211.074219	20521.603516
1209.995117	20855.427734
1208.916016	20739.802734
1207.835938	20816.414063
1206.755859	20927.714844
1205.675781	20888.521484
1204.595703	20680.421875
1203.514648	20893.470703
1202.434570	20618.376953
1201.353516	20604.714844
1200.271484	20722.845703
1199.190430	20718.410156
1198.108398	20443.582031
1197.026367	19856.945313
1195.944336	20028.257813
1194.862305	19529.720703
1193.779297	19541.701172
1192.696289	19475.183594
1191.613281	19175.576172
1190.530273	19150.697266
1189.446289	18899.734375
1188.362305	18570.451172
1187.278320	18126.003906
1186.194336	18384.955078
1185.109375	18002.972656
1184.024414	17805.523438
1182.939453	17672.671875
1181.854492	17567.519531
1180.768555	17642.054688
1179.683594	17585.306641
1178.597656	17694.335938
1177.510742	17296.953125
1176.424805	17369.175781
1175.337891	17367.746094
1174.250977	17301.910156
1173.164063	17298.191406
1172.077148	17232.394531
1170.989258	17320.638672
1169.901367	17036.535156
1168.813477	17223.580078
1167.724609	17346.222656
1166.636719	17360.863281
1165.547852	17279.056641
1164.458984	17582.964844
1163.369141	17329.000000
1162.280273	17568.511719
1161.190430	17784.976563
1160.100586	17895.833984
1159.010742	18061.679688
1157.919922	18039.447266
1156.829102	18108.912109
1155.738281	18460.234375
1154.647461	18371.478516
1153.555664	18262.142578
1152.464844	18221.560547
1151.373047	18444.320313
1150.280273	18266.353516
1149.188477	18122.796875
1148.095703	18233.300781
1147.002930	18021.173828
1145.910156	17845.734375
1144.817383	17926.494141
1143.723633	17538.519531
1142.629883	17582.734375
1141.536133	17368.683594
1140.441406	17369.500000
1139.347656	17260.666016
1138.252930	17220.394531
1137.158203	17152.736328
1136.062500	16986.943359
1134.967773	17083.695313
1133.872070	16847.246094
1132.776367	17039.802734
1131.679688	17109.105469
1130.583984	16877.361328
1129.487305	16969.464844
1128.390625	16986.306641
1127.292969	16636.230469
1126.196289	16769.333984
1125.098633	16763.423828
1124.000977	16819.005859
1122.903320	16854.070313
1121.804688	16884.564453
1120.706055	16855.869141
1119.607422	16838.562500
1118.508789	16839.460938
1117.409180	16765.298828
1116.310547	16600.208984
1115.210938	16744.384766
1114.110352	16747.570313
1113.010742	16712.121094
1111.910156	16349.511719
1110.809570	16811.626953
1109.708984	16580.871094
1108.607422	16561.376953
1107.506836	16693.982422
1106.405273	16347.651367
1105.303711	16389.480469
1104.201172	16267.952148
1103.098633	16273.488281
1101.996094	16172.443359
1100.893555	16298.150391
1099.791016	16256.073242
1098.687500	16252.536133
1097.583984	16378.140625
1096.480469	16222.812500
1095.376953	16404.980469
1094.272461	16433.107422
1093.167969	16621.939453
1092.063477	16607.001953
1090.958008	16736.882813
1089.853516	17022.792969
1088.748047	17154.783203
1087.642578	17356.812500
1086.536133	17423.109375
1085.430664	17634.029297
1084.324219	18106.980469
1083.217773	18299.582031
1082.110352	18530.496094
1081.003906	18901.316406
1079.896484	19005.562500
1078.789063	19452.861328
1077.680664	19502.777344
1076.573242	19710.605469
1075.464844	19864.205078
1074.356445	19706.507813
1073.247070	19760.826172
1072.138672	19722.693359
1071.029297	19459.197266
1069.919922	19013.296875
1068.809570	19160.078125
1067.700195	18863.087891
1066.589844	18255.476563
1065.479492	18395.566406
1064.368164	17781.566406
1063.257813	17680.910156
1062.146484	17384.560547
1061.035156	17475.226563
1059.922852	17118.330078
1058.811523	16993.167969
1057.699219	16546.615234
1056.586914	16534.000000
1055.473633	16548.351563
1054.361328	16257.186523
1053.248047	16260.360352
1052.134766	15928.964844
1051.021484	16212.822266
1049.907227	16020.734375
1048.792969	16055.366211
1047.678711	16018.192383
1046.564453	15801.596680
1045.449219	15800.370117
1044.333984	15752.062500
1043.218750	15950.336914
1042.103516	15751.868164
1040.987305	15927.647461
1039.871094	15874.868164
1038.754883	16057.258789
1037.638672	15567.863281
1036.521484	15727.853516
1035.404297	15822.869141
1034.287109	15973.780273
1033.169922	15930.000000
1032.051758	15660.345703
1030.933594	15764.230469
1029.815430	15944.078125
1028.697266	15920.453125
1027.578125	16093.480469
1026.458984	15902.273438
1025.339844	15965.779297
1024.220703	15794.779297
1023.100586	16197.636719
1021.980469	15999.872070
1020.860352	16219.509766
1019.740234	16010.668945
1018.619141	16285.970703
1017.498047	15918.864258
1016.376953	15919.812500
1015.255859	15853.883789
1014.133789	16059.881836
1013.011719	15882.539063
1011.889648	15919.132813
1010.767578	15922.299805
1009.644531	16061.293945
1008.521484	15948.662109
1007.398438	16036.394531
1006.274414	15825.904297
1005.151367	16000.387695
1004.027344	15965.711914
1002.902344	16128.965820
1001.778320	16321.047852
1000.653320	16132.948242
999.528320	16420.500000
998.403320	16410.203125
997.278320	16470.990234
996.152344	16409.603516
995.026367	16359.345703
993.900391	16477.814453
992.773438	16858.113281
991.646484	16752.312500
990.519531	17136.814453
989.392578	17323.755859
988.265625	17512.830078
987.137695	17579.888672
986.009766	17673.513672
984.881836	17691.753906
983.752930	17647.955078
982.624023	17706.058594
981.495117	17644.556641
980.366211	17257.630859
979.236328	17579.177734
978.106445	17378.324219
976.976563	17270.482422
975.846680	16965.820313
974.715820	16756.384766
973.585938	16681.912109
972.454102	16596.417969
971.323242	16537.480469
970.191406	16169.236328
969.060547	16225.286133
967.927734	16241.556641
966.795898	16202.617188
965.663086	16104.089844
964.530273	16213.068359
963.397461	16242.560547
962.264648	16243.358398
961.130859	16160.342773
959.997070	16474.281250
958.863281	16384.632813
957.729492	16473.558594
956.594727	16505.148438
955.459961	16536.722656
954.325195	16314.977539
953.189453	16289.320313
952.053711	16184.414063
950.917969	16218.227539
949.782227	16170.598633
948.646484	16065.784180
947.509766	16202.982422
946.373047	15961.854492
945.235352	16312.287109
944.098633	15974.516602
942.960938	16124.793945
941.823242	16103.617188
940.685547	16128.580078
939.546875	16357.783203
938.408203	16349.738281
937.269531	16508.539063
936.129883	16601.421875
934.991211	16516.523438
933.851563	16835.322266
932.711914	16895.166016
931.571289	17009.802734
930.431641	17038.884766
929.291016	17254.259766
928.149414	17373.117188
927.008789	17367.039063
925.867188	17212.017578
924.725586	17061.443359
923.583984	16928.449219
922.441406	16734.224609
921.299805	16780.812500
920.157227	16407.294922
919.013672	16377.370117
917.871094	16262.166992
916.727539	15921.808594
915.583984	15920.426758
914.439453	15766.060547
913.295898	15884.885742
912.151367	15536.172852
911.006836	15547.977539
909.861328	15655.849609
908.716797	15665.436523
907.571289	15616.088867
906.424805	15612.583984
905.279297	15550.178711
904.132813	15518.333984
902.986328	15527.933594
901.839844	15568.048828
900.692383	15551.474609
899.545898	15510.936523
898.398438	15339.698242
897.250000	15395.060547
896.102539	15478.707031
894.954102	15468.696289
893.805664	15495.692383
892.656250	15409.513672
891.507813	15732.401367
890.358398	15496.117188
889.208984	15436.087891
888.058594	15430.441406
886.908203	15509.570313
885.758789	15445.229492
884.607422	15422.197266
883.457031	15210.188477
882.305664	15491.265625
881.154297	15548.572266
880.002930	15282.404297
878.850586	15239.895508
877.698242	15384.008789
876.545898	15278.583984
875.393555	15344.542969
874.240234	15269.528320
873.086914	15298.603516
871.933594	15269.144531
870.780273	15066.347656
869.625977	15227.594727
868.471680	15247.984375
867.317383	15259.701172
866.162109	15161.000000
865.007813	15337.226563
863.852539	15032.974609
862.696289	15137.753906
861.541016	15095.401367
860.384766	15040.091797
859.228516	14839.952148
858.072266	15063.557617
856.915039	14980.196289
855.757813	15071.874023
854.600586	14876.222656
853.442383	14799.434570
852.285156	15251.651367
851.126953	15069.040039
849.968750	15154.113281
848.809570	14978.077148
847.650391	15155.885742
846.491211	15199.901367
845.332031	15086.498047
844.171875	15104.639648
843.012695	15107.685547
841.851563	14880.177734
840.691406	15059.914063
839.530273	15050.041992
838.369141	15005.721680
837.208008	15144.401367
836.046875	15115.142578
834.884766	15027.797852
833.722656	15131.955078
832.560547	14939.255859
831.397461	15079.937500
830.234375	15149.610352
829.071289	15066.650391
827.908203	15005.213867
826.744141	15147.896484
825.580078	15131.571289
824.416016	14977.822266
823.251953	15152.613281
822.086914	15353.079102
820.921875	15171.484375
819.756836	15037.168945
818.590820	15014.449219
817.425781	15113.971680
816.259766	15279.909180
815.092773	15010.648438
813.926758	15122.957031
812.759766	15153.799805
811.592773	15347.418945
810.424805	15290.391602
809.257813	15154.171875
808.089844	15080.086914
806.920898	15018.875977
805.752930	14887.084961
804.583984	15024.876953
803.415039	15109.140625
802.246094	14945.343750
801.076172	15016.758789
799.906250	15265.521484
798.736328	15356.058594
797.566406	15030.001953
796.395508	15024.443359
795.224609	15200.375977
794.053711	15455.211914
792.881836	15560.535156
791.710938	15565.524414
790.538086	16037.688477
789.366211	16260.104492
788.194336	16365.143555
787.021484	16868.775391
785.848633	16969.363281
784.674805	16935.662109
783.500977	16793.328125
782.327148	16798.015625
781.153320	16536.531250
779.979492	16513.597656
778.804688	16369.356445
777.629883	16327.318359
776.454102	16244.876953
775.279297	16017.841797
774.103516	16035.448242
772.927734	16208.240234
771.750977	16287.431641
770.575195	16024.462891
769.398438	16303.359375
768.220703	16688.328125
767.043945	16646.291016
765.866211	17101.062500
764.688477	17173.564453
763.510742	17398.822266
762.332031	17823.404297
761.153320	18368.691406
759.974609	19210.615234
758.794922	20234.480469
757.616211	21079.828125
756.436523	22719.470703
755.255859	24269.376953
754.076172	26784.464844
752.895508	30109.478516
751.714844	34070.250000
750.533203	38071.539063
749.352539	43328.046875
748.170898	47137.074219
746.988281	51130.500000
745.806641	53311.832031
744.624023	54293.343750
743.441406	53689.035156
742.258789	52081.160156
741.075195	50632.484375
739.891602	48949.992188
738.708008	47587.164063
737.523438	46113.054688
736.339844	45106.125000
735.155273	44011.019531
733.969727	42448.003906
732.785156	40524.980469
731.599609	38735.703125
730.414063	35572.500000
729.227539	32611.007813
728.041992	29539.173828
726.855469	26921.761719
725.667969	24461.433594
724.481445	22642.482422
723.293945	21588.697266
722.106445	20360.669922
720.918945	19408.910156
719.730469	18535.439453
718.541992	18261.914063
717.353516	17725.613281
716.164063	17332.542969
714.975586	17172.996094
713.786133	17057.658203
712.595703	16782.677734
711.406250	16276.737305
710.215820	16646.847656
709.025391	16342.749023
707.833984	16242.422852
706.642578	16299.554688
705.451172	16333.577148
704.259766	16436.812500
703.068359	16454.005859
701.875977	16244.723633
700.683594	16653.982422
699.490234	17224.437500
698.297852	17650.042969
697.104492	18794.029297
695.910156	19478.792969
694.716797	20242.810547
693.522461	20939.484375
692.328125	21330.250000
691.132813	21409.041016
689.938477	21023.351563
688.743164	21028.968750
687.547852	20626.812500
686.351563	19819.255859
685.155273	19359.037109
683.958984	18848.875000
682.762695	18318.056641
681.565430	18257.439453
680.368164	18059.027344
679.170898	17651.929688
677.973633	17441.220703
676.775391	17639.619141
675.577148	17750.298828
674.378906	17541.796875
673.179688	17393.863281
671.980469	17266.843750
670.781250	17102.365234
669.581055	17100.503906
668.381836	16881.968750
667.181641	16513.558594
665.980469	16432.697266
664.780273	16266.511719
663.579102	16175.335938
662.377930	16067.551758
661.175781	16051.361328
659.973633	16307.663086
658.771484	16291.421875
657.569336	16171.231445
656.367188	16221.541992
655.164063	16427.689453
653.960938	16708.535156
652.756836	16671.441406
651.552734	17058.011719
650.348633	17338.513672
649.144531	17614.734375
647.939453	18175.136719
646.735352	18293.349609
645.529297	18289.123047
644.324219	18305.634766
643.118164	18658.021484
641.912109	18603.960938
640.706055	18222.486328
639.499023	18079.457031
638.292969	17841.207031
637.084961	17497.447266
635.877930	17083.449219
634.669922	16522.671875
633.461914	16576.796875
632.253906	16152.950195
631.044922	16287.808594
629.836914	16102.050781
628.626953	15914.310547
627.417969	15794.871094
626.208008	15774.683594
624.998047	15787.564453
623.788086	15856.210938
622.577148	15759.607422
621.366211	15749.767578
620.155273	15415.841797
618.944336	15455.614258
617.732422	15408.708008
616.520508	15304.063477
615.308594	15195.341797
614.095703	15414.505859
612.882813	15276.947266
611.669922	15034.344727
610.457031	14857.788086
609.243164	15012.964844
608.029297	14910.633789
606.815430	14995.717773
605.600586	14946.958008
604.385742	15019.643555
603.170898	15020.280273
601.955078	15053.829102
600.740234	15179.909180
599.524414	15312.098633
598.307617	15273.604492
597.091797	15401.598633
595.875000	15190.503906
594.658203	15423.221680
593.440430	15347.766602
592.222656	15383.222656
591.004883	15361.182617
589.787109	15357.623047
588.568359	14986.780273
587.349609	15284.860352
586.130859	14875.238281
584.912109	14906.647461
583.692383	14679.746094
582.472656	14883.340820
581.251953	14898.332031
580.032227	15091.537109
578.811523	15018.404297
577.589844	15348.677734
576.369141	15381.966797
575.147461	15734.514648
573.925781	15872.050781
572.703125	16428.886719
571.481445	16482.343750
570.258789	17159.417969
569.035156	17523.404297
567.812500	17668.537109
566.588867	18379.597656
565.365234	18397.804688
564.140625	18489.529297
562.916992	19052.884766
561.692383	19021.927734
560.466797	19158.339844
559.242188	18831.500000
558.016602	18390.572266
556.791016	17933.531250
555.564453	17947.720703
554.337891	17064.929688
553.111328	16806.207031
551.884766	16233.807617
550.657227	15792.051758
549.429688	15220.151367
548.202148	15296.032227
546.974609	15007.478516
545.746094	14916.478516
544.517578	14860.112305
543.288086	14822.080078
542.058594	14682.371094
540.829102	14931.102539
539.599609	14602.372070
538.370117	14440.452148
537.139648	14652.488281
535.909180	14573.921875
534.677734	14663.965820
533.446289	14865.646484
532.214844	14588.135742
530.983398	14393.965820
529.750977	14557.013672
528.519531	14474.515625
527.286133	14187.208008
526.053711	14265.023438
524.820313	14359.019531
523.586914	14367.846680
522.353516	14348.299805
521.119141	14470.570313
519.884766	14534.047852
518.650391	14277.561523
517.415039	14197.317383
516.179688	14210.212891
514.944336	14237.265625
513.708984	14102.463867
