#Wave	#Intensity
2109.007813	3494.731689
2107.496094	3562.54248
2105.984375	3548.543457
2104.470703	3628.783203
2102.958984	3535.439453
2101.445313	3579.292725
2099.933594	3548.781006
2098.419922	3564.532227
2096.90625	3530.734131
2095.390625	3526.669922
2093.876953	3577.080566
2092.361328	3538.35083
2090.845703	3554.087402
2089.332031	3515.379395
2087.814453	3532.763428
2086.298828	3489.129883
2084.783203	3531.240967
2083.265625	3482.681885
2081.748047	3551.141846
2080.230469	3456.469238
2078.712891	3462.313721
2077.195313	3507.678711
2075.677734	3510.216797
2074.158203	3455.140869
2072.638672	3497.186768
2071.119141	3465.172363
2069.599609	3447.977295
2068.080078	3434.078857
2066.560547	3421.830566
2065.039063	3511.513672
2063.517578	3436.796631
2061.996094	3442.631836
2060.474609	3497.751465
2058.953125	3386.949463
2057.429688	3483.112549
2055.908203	3479.081543
2054.384766	3535.787598
2052.861328	3502.206543
2051.337891	3496.533203
2049.814453	3510.547607
2048.289063	3524.555908
2046.765625	3469.689209
2045.240234	3405.009766
2043.714844	3468.202881
2042.189453	3529.730225
2040.664063	3466.717773
2039.136719	3480.717529
2037.609375	3507.812256
2036.083984	3523.434326
2034.556641	3486.667969
2033.029297	3484.285645
2031.5	3452.452148
2029.972656	3464.801025
2028.443359	3444.433838
2026.914063	3446.968018
2025.386719	3413.534668
2023.855469	3380.115479
2022.326172	3400.637207
2020.796875	3524.078857
2019.265625	3461.255615
2017.734375	3560.13501
2016.203125	3394.468262
2014.671875	3457.406982
2013.140625	3397.915527
2011.607422	3464.090088
2010.076172	3420.936035
2008.542969	3566.996582
2007.009766	3487.9646
2005.476563	3505.154053
2003.943359	3444.098389
2002.408203	3479.21582
2000.875	3455.664551
1999.339844	3388.142822
1997.804688	3447.677979
1996.269531	3482.764404
1994.732422	3468.999756
1993.197266	3478.026123
1991.660156	3465.895264
1990.123047	3437.501465
1988.585938	3410.74585
1987.048828	3478.317871
1985.511719	3435.307129
1983.972656	3429.699951
1982.435547	3464.722656
1980.896484	3389.246826
1979.357422	3466.497803
1977.818359	3415.414551
1976.279297	3442.291748
1974.738281	3478.897705
1973.197266	3496.011475
1971.658203	3459.56958
1970.117188	3421.520508
1968.576172	3409.439453
1967.033203	3410.336914
1965.492188	3432.310791
1963.949219	3400.783447
1962.40625	3380.614014
1960.863281	3423.643555
1959.320313	3380.79834
1957.777344	3362.265381
1956.232422	3304.878174
1954.689453	3425.594238
1953.144531	3329.372559
1951.599609	3372.357666
1950.054688	3429.885742
1948.507813	3442.098389
1946.962891	3384.766846
1945.416016	3430.937256
1943.869141	3477.088135
1942.322266	3389.078369
1940.775391	3328.574707
1939.228516	3434.490234
1937.679688	3459.604248
1936.132813	3424.960449
1934.583984	3435.535645
1933.035156	3360.559082
1931.486328	3392.12207
1929.935547	3351.067871
1928.386719	3414.881104
1926.835938	3286.751709
1925.285156	3374.737061
1923.734375	3307.928223
1922.183594	3365.249268
1920.632813	3391.929932
1919.080078	3276.828857
1917.527344	3396.936523
1915.976563	3384.944824
1914.423828	3369.738281
1912.869141	3406.047363
1911.316406	3411.763672
1909.761719	3399.778809
1908.208984	3368.495117
1906.654297	3477.146729
1905.099609	3410.484619
1903.544922	3348.673584
1901.988281	3333.499512
1900.433594	3339.222168
1898.876953	3361.008301
1897.320313	3374.753662
1895.763672	3504.119385
1894.207031	3442.366211
1892.648438	3372.613037
1891.091797	3347.826172
1889.533203	3327.863525
1887.974609	3433.038574
1886.416016	3342.495361
1884.857422	3397.912842
1883.298828	3424.448975
1881.738281	3290.687012
1880.177734	3357.297607
1878.617188	3362.996826
1877.056641	3339.860107
1875.496094	3403.2146
1873.935547	3322.436768
1872.373047	3369.759766
1870.810547	3343.439697
1869.248047	3301.128906
1867.685547	3414.018799
1866.123047	3299.734131
1864.560547	3345.412109
1862.996094	3288.74707
1861.431641	3332.809326
1859.867188	3253.796875
1858.302734	3297.847656
1856.738281	3381.816162
1855.171875	3358.742188
1853.607422	3298.95166
1852.041016	3315.815674
1850.474609	3356.614258
1848.908203	3434.0979
1847.341797	3300.95166
1845.773438	3356.082764
1844.207031	3334.64209
1842.638672	3388.148193
1841.070313	3271.064453
1839.501953	3263.998535
1837.931641	3438.584717
1836.363281	3286.516357
1834.792969	3317.677002
1833.222656	3286.720703
1831.652344	3344.933105
1830.082031	3318.759033
1828.511719	3324.423828
1826.941406	3382.591064
1825.369141	3297.568359
1823.796875	3416.151123
1822.224609	3313.666504
1820.652344	3359.068359
1819.078125	3348.822754
1817.505859	3349.704834
1815.931641	3372.828125
1814.357422	3322.876221
1812.783203	3284.061768
1811.208984	3370.691895
1809.634766	3374.742188
1808.058594	3293.09082
1806.484375	3284.461914
1804.908203	3309.150146
1803.332031	3349.687988
1801.753906	3402.894287
1800.177734	3310.224854
1798.601563	3274.655273
1797.023438	3315.165771
1795.445313	3366.749268
1793.867188	3377.126221
1792.289063	3309.898438
1790.708984	3266.448975
1789.130859	3370.238037
1787.550781	3363.195557
1785.970703	3360.902832
1784.390625	3368.103027
1782.810547	3338.921387
1781.228516	3265.474365
1779.646484	3339.091797
1778.066406	3325.741211
1776.484375	3394.57373
1774.902344	3351.196289
1773.318359	3344.169678
1771.736328	3405.057373
1770.152344	3349.072754
1768.568359	3379.938721
1766.984375	3374.489502
1765.400391	3305.922363
1763.816406	3387.262695
1762.230469	3358.154785
1760.646484	3332.213135
1759.060547	3359.888916
1757.474609	3385.976563
1755.888672	3380.532959
1754.300781	3381.394287
1752.714844	3415.336914
1751.126953	3379.964844
1749.539063	3418.617188
1747.951172	3414.74585
1746.363281	3352.637695
1744.775391	3389.697021
1743.185547	3381.11377
1741.595703	3424.443115
1740.007813	3464.608643
1738.416016	3448.152588
1736.826172	3404.979004
1735.236328	3481.27124
1733.644531	3416.109619
1732.052734	3503.36377
1730.462891	3501.052246
1728.869141	3451.630615
1727.277344	3383.389648
1725.685547	3478.424805
1724.091797	3471.411377
1722.498047	3597.767578
1720.904297	3433.862549
1719.310547	3553.899414
1717.716797	3564.123535
1716.121094	3566.504395
1714.527344	3567.316895
1712.931641	3588.500244
1711.335938	3501.572021
1709.740234	3563.485352
1708.142578	3717.768555
1706.546875	3659.050293
1704.949219	3691.148193
1703.351563	3651.240479
1701.753906	3677.067139
1700.15625	3645.000732
1698.558594	3738.071533
1696.958984	3695.059326
1695.359375	3733.36084
1693.759766	3595.02124
1692.160156	3717.7146
1690.560547	3723.17627
1688.960938	3727.073242
1687.359375	3632.57959
1685.757813	3698.949707
1684.15625	3809.001221
1682.554688	3758.25
1680.953125	3815.188232
1679.349609	3836.220215
1677.748047	3916.513184
1676.144531	3898.529053
1674.541016	3952.27002
1672.9375	3918.697754
1671.332031	4005.137939
1669.728516	3984.032959
1668.123047	4109.365723
1666.517578	4097.591797
1664.912109	4222.847168
1663.306641	4256.199707
1661.701172	4273.973145
1660.09375	4280.846191
1658.486328	4262.82373
1656.878906	4359.911621
1655.271484	4427.410645
1653.664063	4485.552246
1652.056641	4563.876465
1650.447266	4601.760254
1648.837891	4638.073242
1647.228516	4693.012207
1645.619141	4665.611816
1644.009766	4819.900391
1642.398438	4867.002441
1640.789063	4921.845215
1639.177734	4937.868652
1637.566406	5053.179688
1635.955078	5078.474609
1634.341797	5015.361816
1632.730469	5206.556152
1631.117188	5233.351563
1629.503906	5339.17627
1627.890625	5395.37207
1626.277344	5434.502441
1624.662109	5419.405762
1623.048828	5546.778809
1621.433594	5581.206543
1619.818359	5587.757324
1618.203125	5546.331543
1616.587891	5628.699219
1614.970703	5823.952148
1613.353516	5835.083496
1611.738281	5937.436523
1610.121094	5804.771484
1608.501953	5944.179199
1606.884766	6006.266113
1605.267578	5967.908691
1603.648438	6085.567383
1602.029297	6164.569824
1600.410156	6197.220703
1598.791016	6215.965332
1597.169922	6200.750488
1595.550781	6088.337402
1593.929688	6255.180176
1592.308594	6099.619629
1590.6875	6127.614258
1589.064453	6134.01416
1587.443359	6197.437988
1585.820313	6163.754883
1584.197266	6253.334473
1582.574219	6264.321289
1580.951172	6164.425781
1579.328125	6313.992188
1577.703125	6341.88916
1576.080078	6266.663574
1574.455078	6259.169434
1572.830078	6287.05957
1571.203125	6231.885742
1569.578125	6258.230957
1567.951172	6289.17627
1566.324219	6293.978516
1564.697266	6217.335938
1563.070313	6085.416992
1561.443359	6042.642578
1559.816406	6095.097656
1558.1875	6003.20752
1556.558594	6006.527344
1554.929688	6058.955078
1553.300781	6020.83252
1551.669922	5999.600586
1550.041016	5998.314941
1548.410156	5947.961914
1546.779297	6000.34375
1545.148438	6040.440918
1543.517578	5895.101563
1541.884766	5854.003906
1540.251953	5923.208008
1538.621094	5921.9375
1536.988281	5775.214844
1535.353516	5876.535645
1533.720703	5973.22168
1532.085938	5792.918945
1530.453125	5586.6875
1528.818359	5655.841797
1527.183594	5773.897461
1525.546875	5671.758301
1523.912109	5675.125
1522.275391	5542.487793
1520.640625	5400.739746
1519.003906	5492.754395
1517.365234	5441.178223
1515.728516	5381.989746
1514.091797	5467.841309
1512.453125	5459.034668
1510.814453	5470.066895
1509.175781	5339.223145
1507.537109	5338.074219
1505.896484	5323.202148
1504.257813	5244.306152
1502.617188	5345.296875
1500.976563	5354.812988
1499.335938	5286.624512
1497.693359	5265.684082
1496.052734	5293.484375
1494.410156	5243.62207
1492.767578	5242.492188
1491.125	5137.874023
1489.482422	5182.412598
1487.837891	5117.40332
1486.195313	5164.968262
1484.550781	5176.018555
1482.90625	5149.057617
1481.261719	5157.065918
1479.617188	5231.932129
1477.970703	5303.727051
1476.324219	5311.695313
1474.677734	5345.475586
1473.03125	5397.460449
1471.384766	5467.637695
1469.738281	5469.491699
1468.089844	5494.103027
1466.441406	5546.009277
1464.792969	5579.692383
1463.144531	5476.893555
1461.496094	5460.548828
1459.845703	5500.290039
1458.197266	5518.798828
1456.546875	5408.524902
1454.896484	5455.82373
1453.244141	5371.353516
1451.59375	5320.228027
1449.941406	5210.09082
1448.291016	5180.208496
1446.638672	5173.033691
1444.984375	5226.369629
1443.332031	5291.780762
1441.679688	5278.537109
1440.025391	5171.572754
1438.371094	5247.53125
1436.716797	5172.351074
1435.0625	5008.069824
1433.40625	5080.992676
1431.75	5184.084961
1430.095703	5071.238281
1428.439453	5015.797852
1426.78125	4946.799316
1425.125	4822.005859
1423.466797	4777.213379
1421.810547	4831.975098
1420.152344	4824.893555
1418.494141	4808.77002
1416.833984	4845.402344
1415.175781	4946.810547
1413.515625	5002.97998
1411.855469	5009.421875
1410.195313	4939.063965
1408.535156	5141.229004
1406.875	5236.439941
1405.212891	5394.811035
1403.550781	5578.689453
1401.888672	5553.407227
1400.226563	5652.95459
1398.564453	5587.071289
1396.900391	5685.063477
1395.238281	5518.508789
1393.574219	5593.93457
1391.910156	5434.982422
1390.244141	5496.875488
1388.580078	5356.03125
1386.914063	5302.319336
1385.248047	5425.73584
1383.582031	5325.513672
1381.916016	5321.349609
1380.25	5383.183594
1378.582031	5334.02002
1376.916016	5404.818848
1375.248047	5504.064941
1373.578125	5354.5
1371.910156	5422.249512
1370.242188	5497.458496
1368.572266	5368.958008
1366.902344	5424.679688
1365.232422	5544.746094
1363.5625	5513.599609
1361.890625	5522.866211
1360.220703	5443.865234
1358.548828	5580.272461
1356.876953	5673.254883
1355.205078	5673.506348
1353.53125	5685.714355
1351.859375	5736.769043
1350.185547	5926.744141
1348.511719	6021.039551
1346.837891	6107.82666
1345.164063	6161.728027
1343.488281	6248.444336
1341.8125	6545.546875
1340.138672	6873.851074
1338.460938	7015.545898
1336.785156	7139.280762
1335.109375	7379.263672
1333.431641	7490.9375
1331.753906	7562.319824
1330.076172	7512.974121
1328.398438	7499.40332
1326.720703	7557.330078
1325.041016	7618.208984
1323.361328	7478.07666
1321.681641	7403.496582
1320.001953	7254.542969
1318.322266	7101.190918
1316.640625	6892.870117
1314.960938	6796.174805
1313.279297	6479.475098
1311.597656	6298.183105
1309.914063	6059.01123
1308.232422	6091.848145
1306.548828	6089.018555
1304.865234	5952.525391
1303.181641	5863.605957
1301.498047	5939.505859
1299.814453	5884.763672
1298.128906	5665.337891
1296.443359	5644.800293
1294.757813	5504.132813
1293.072266	5505.881836
1291.386719	5258.563477
1289.699219	5364.119629
1288.011719	5193.998535
1286.324219	5135.068359
1284.636719	5120.601074
1282.949219	5119.467773
1281.259766	5053.188965
1279.572266	5066.872559
1277.882813	4953.276855
1276.193359	4980.291504
1274.501953	4890.432129
1272.8125	4939.631836
1271.121094	4911.921875
1269.429688	4968.485352
1267.738281	5094.486816
1266.046875	4929.34082
1264.353516	4891.314453
1262.662109	4962.600098
1260.96875	4937.87207
1259.275391	4933.822754
1257.582031	4886.97168
1255.886719	4896.215332
1254.193359	4785.953125
1252.498047	4855.689453
1250.802734	4854.609863
1249.107422	4919.875488
1247.410156	4843.606445
1245.714844	4870.528809
1244.017578	4888.598633
1242.320313	4734.31543
1240.623047	4821.623535
1238.925781	4873.555176
1237.226563	4737.041504
1235.527344	4730.099121
1233.828125	4648.118652
1232.128906	4627.958984
1230.429688	4519.563477
1228.728516	4405.334473
1227.029297	4508.727051
1225.328125	4412.1875
1223.626953	4327.445801
1221.923828	4383.774414
1220.222656	4278.513184
1218.519531	4324.547852
1216.816406	4300.092285
1215.113281	4221.338867
1213.410156	4138.218262
1211.707031	4278.137207
1210.001953	4142.235352
1208.296875	4185.302734
1206.591797	4135.983887
1204.886719	4020.725342
1203.179688	4018.359863
1201.474609	4118.556152
1199.767578	4076.618896
1198.060547	4036.164307
1196.353516	4131.895508
1194.644531	4101.692871
1192.9375	4128.580566
1191.228516	4028.157959
1189.519531	4018.477783
1187.810547	4090.703125
1186.099609	4108.793945
1184.390625	4024.545166
1182.679688	3954.949219
1180.96875	4009.587646
1179.257813	3963.399658
1177.544922	3924.534912
1175.833984	3939.71582
1174.121094	3970.948486
1172.408203	3851.830078
1170.695313	3929.763672
1168.982422	3918.66748
1167.267578	3963.002686
1165.552734	3931.487549
1163.837891	3981.630615
1162.123047	3890.362549
1160.408203	3908.431396
1158.691406	3917.75
1156.976563	3842.57959
1155.259766	3792.199951
1153.541016	3821.920654
1151.824219	3743.910156
1150.107422	3748.887451
1148.388672	3803.331543
1146.669922	3671.554443
1144.951172	3635.822266
1143.230469	3672.805908
1141.511719	3618.190918
1139.791016	3599.933838
1138.070313	3615.104248
1136.349609	3698.543457
1134.628906	3610.566162
1132.90625	3564.737305
1131.185547	3601.675781
1129.462891	3516.681885
1127.740234	3582.634766
1126.015625	3499.133301
1124.292969	3540.403076
1122.568359	3422.146729
1120.84375	3389.478027
1119.119141	3471.32666
1117.394531	3427.068359
1115.667969	3472.6521
1113.941406	3486.349365
1112.214844	3358.127197
1110.488281	3409.485596
1108.761719	3469.504883
1107.033203	3449.905518
1105.306641	3344.954834
1103.578125	3446.894043
1101.849609	3353.559814
1100.119141	3253.038818
1098.390625	3365.046631
1096.660156	3362.837158
1094.929688	3340.401123
1093.199219	3290.529785
1091.46875	3337.439209
1089.736328	3316.467041
1088.003906	3255.085938
1086.273438	3326.50415
1084.539063	3319.976074
1082.806641	3309.123291
1081.074219	3364.615234
1079.339844	3262.919434
1077.605469	3319.837646
1075.871094	3310.43457
1074.134766	3368.756104
1072.400391	3367.988525
1070.664063	3324.014648
1068.927734	3382.292236
1067.191406	3254.840088
1065.455078	3333.255371
1063.716797	3292.205811
1061.978516	3248.297363
1060.240234	3201.532471
1058.501953	3176.356934
1056.763672	3227.38501
1055.023438	3220.898926
1053.283203	3185.676758
1051.542969	3228.047119
1049.802734	3198.583984
1048.0625	3289.753418
1046.320313	3300.486328
1044.578125	3337.049072
1042.835938	3251.623047
1041.09375	3273.833252
1039.351563	3297.467285
1037.607422	3299.580322
1035.863281	3320.329834
1034.119141	3286.603027
1032.375	3295.881104
1030.628906	3216.32959
1028.884766	3301.532715
1027.138672	3319.39209
1025.392578	3310.041016
1023.646484	3309.281982
1021.898438	3322.833252
1020.152344	3380.729492
1018.404297	3364.219727
1016.65625	3270.495117
1014.90625	3314.06543
1013.158203	3267.564209
1011.408203	3358.273193
1009.658203	3226.059082
1007.908203	3201.035156
1006.158203	3224.57666
1004.40625	3228.118652
1002.65625	3265.916504
1000.904297	3343.655029
999.150391	3325.764893
997.398438	3242.26709
995.646484	3221.555664
993.892578	3195.150146
992.138672	3133.120605
990.384766	3225.031494
988.628906	3275.581055
986.875	3153.747559
985.119141	3191.472168
983.363281	3243.417236
981.607422	3299.608643
979.849609	3223.421143
978.09375	3323.69751
976.335938	3240.426514
974.578125	3249.634033
972.820313	3236.087646
971.060547	3194.117188
969.300781	3264.438477
967.542969	3204.009033
965.78125	3235.940918
964.021484	3256.496094
962.261719	3329.576416
960.5	3426.754883
958.738281	3448.669922
956.976563	3449.29126
955.214844	3398.844482
953.451172	3395.22168
951.6875	3385.928711
949.923828	3229.213135
948.160156	3272.399902
946.396484	3226.30127
944.630859	3258.135498
942.865234	3178.070801
941.099609	3198.573242
939.333984	3178.013916
937.568359	3164.539795
935.800781	3083.154785
934.033203	3098.000488
932.265625	3115.667969
930.498047	3093.73584
928.730469	3060.504639
926.960938	3106.43335
925.191406	3076.039795
923.421875	3090.86499
921.652344	3145.227539
919.880859	3080.95752
918.109375	3068.94873
916.337891	3141.625
914.566406	3070.344727
912.794922	3128.879395
911.021484	3070.327637
909.248047	3145.754883
907.474609	3053.393311
905.701172	3093.554443
903.927734	3101.289063
902.152344	3096.341064
900.376953	3149.138916
898.601563	3173.750732
896.826172	3068.840088
895.050781	3073.754883
893.273438	3188.418457
891.496094	3212.99707
889.71875	3171.462158
887.939453	3103.230957
886.162109	3143.274414
884.382813	3091.946045
882.603516	3078.579102
880.824219	3011.836426
879.044922	3037.818359
877.263672	3011.835205
875.482422	3034.996582
873.701172	2972.535645
871.919922	2950.794678
870.138672	2973.953369
868.355469	2963.441162
866.572266	2983.78125
864.789063	2938.225586
863.005859	2909.508789
861.220703	2913.032227
859.435547	2896.941895
857.650391	2901.866455
855.865234	2917.98999
854.080078	2879.51123
852.292969	2890.033691
850.505859	2827.792236
848.71875	2831.327148
846.931641	2906.185791
845.144531	2965.628906
843.355469	2902.029053
841.566406	2911.132324
839.777344	2917.436523
837.988281	2958.660156
836.197266	2920.259033
834.408203	2941.914551
832.617188	2870.032227
830.824219	2933.556885
829.033203	2938.449951
827.240234	2914.046631
825.449219	2927.309082
823.65625	2978.210938
821.861328	2944.056885
820.068359	2849.991943
818.273438	2928.741455
816.478516	2930.8396
814.683594	2991.428223
812.888672	3000.47168
811.091797	2959.398682
809.296875	2925.302979
807.5	2906.527832
805.701172	2816.819336
803.904297	2889.86377
802.105469	2894.745605
800.308594	2807.882324
798.509766	2833.626221
796.708984	2956.61499
794.910156	2867.019287
793.109375	2852.457275
791.308594	2943.420654
789.507813	2917.742188
787.707031	2890.687744
785.904297	2855.321289
784.101563	2849.100342
782.298828	2845.655518
780.496094	2864.395264
778.693359	2873.422852
776.888672	2853.344482
775.083984	2890.079346
773.279297	2760.580078
771.474609	2849.941895
769.667969	2818.811035
767.861328	2845.829102
766.054688	2803.642822
764.248047	2773.92749
762.441406	2888.07666
760.632813	2850.057861
758.824219	2878.417969
757.015625	2923.35083
755.207031	2982.081055
753.398438	2898.483887
751.587891	2987.578369
749.777344	3002.062256
747.966797	3070.381348
746.154297	3127.625732
744.34375	3238.659424
742.53125	3437.934082
740.71875	3627.459473
738.90625	4236.091309
737.091797	4967.130859
735.277344	5889.40625
733.464844	6785.062988
731.648438	6815.143066
729.833984	6493.995117
728.019531	5607.060059
726.203125	4810.027344
724.386719	4137.240234
722.568359	3643.6521
720.751953	3473.581055
718.933594	3331.097412
717.115234	3168.05542
715.296875	2992.718018
713.478516	2964.521484
711.658203	2940.459961
709.839844	2877.945557
708.019531	2914.344971
706.197266	2942.488525
704.376953	2852.562256
702.554688	2953.444824
700.734375	2875.906982
698.910156	2934.210693
697.087891	2918.428711
695.265625	2916.36499
693.441406	2947.201172
691.617188	2983.50415
689.792969	2911.548584
687.966797	2975.23877
686.140625	3107.372803
684.316406	3012.162354
682.490234	2951.218018
680.662109	2945.042969
678.835938	2985.388916
677.007813	3039.394287
675.179688	2940.209229
673.351563	2969.589111
671.521484	3046.795898
669.693359	2954.511963
667.863281	3007.092773
666.033203	3007.743652
664.201172	2966.060791
662.371094	2951.702637
660.539063	2931.891602
658.707031	2980.320313
656.875	3061.468506
655.041016	2963.898438
653.208984	2935.92041
651.375	3018.384033
649.541016	3068.096191
647.705078	3029.211182
645.871094	3021.678223
644.035156	3048.199219
642.199219	3073.345703
640.363281	3015.436035
638.525391	2976.608643
636.689453	3028.967773
634.851563	3026.885742
633.013672	3041.125244
631.173828	2990.089844
629.335938	3034.238525
627.496094	3085.161133
625.65625	3138.776855
623.816406	3105.425781
621.974609	3146.787598
620.132813	3207.138428
618.292969	3177.866699
616.449219	3121.465332
614.607422	3161.425781
612.763672	3063.00293
610.921875	3033.79248
609.078125	2982.901611
607.232422	2891.368652
605.388672	2919.138428
603.542969	2857.471436
601.697266	2837.825684
599.851563	2814.125977
598.005859	2794.499512
596.158203	2719.384277
594.310547	2767.453125
592.462891	2788.439453
590.615234	2856.758057
588.765625	2780.346436
586.916016	2852.689697
585.066406	2781.721924
583.216797	2867.543213
581.367188	2829.029785
579.515625	2770.273926
577.664063	2814.174316
575.8125	2808.101807
573.960938	2866.818848
572.107422	2831.049072
570.253906	2816.881836
568.400391	2859.368896
566.546875	2896.44165
564.693359	2880.919922
562.837891	2843.84082
560.982422	2901.102051
559.126953	2916.574219
557.269531	2879.512451
555.414063	2888.249512
553.556641	2761.017822
551.699219	2807.462402
549.841797	2816.209717
547.982422	2784.596191
546.123047	2851.174805
544.263672	2850.492676
542.404297	2825.614258
540.544922	2892.134766
538.683594	2839.041992
536.822266	2785.974609
534.960938	2849.770264
533.099609	2845.060303
531.236328	2816.190674
529.373047	2705.472656
527.509766	2749.100342
525.646484	2777.952393
523.783203	2808.131104
521.917969	3078.283447
520.052734	3308.094482
518.1875	3074.129639
516.320313	2930.040039
514.455078	2848.972656
512.587891	2730.44873
510.720703	2724.439697
508.853516	2679.617676
506.984375	2642.845947
505.115234	2644.888672
503.246094	2662.980469
501.376953	2627.575684
499.507813	2614.914551
497.636719	2633
495.765625	2632.369141
493.894531	2566.279053
492.021484	2657.820068
490.150391	2630.478027
488.277344	2639.192383
486.404297	2639.894775
484.53125	2673.954346
482.65625	2662.641846
480.78125	2694.011963
478.90625	2672.032715
477.03125	2756.706543
475.15625	2650.761719
473.279297	2635.470215
471.402344	2625.514404
469.525391	2672.828369
467.648438	2648.221924
465.769531	2622.296143
463.890625	2563.112793
462.011719	2651.640381
460.132813	2621.741455
458.251953	2536.003418
456.371094	2563.315674
454.490234	2674.354248
452.609375	2608.5979
450.728516	2556.158691
448.845703	2636.569092
446.962891	2589.459717
445.080078	2629.995117
443.197266	2593.527832
441.3125	2663.23584
439.427734	2621.471191
437.542969	2585.031738
435.658203	2555.239746
433.771484	2574.512939
431.886719	2600.403564
430	2560.02832
428.111328	2568.687744
426.224609	2586.614258
424.335938	2550.243164
422.447266	2640.973877
420.558594	2612.547852
418.669922	2619.860596
416.779297	2568.9646
414.888672	2615.959961
412.998047	2603.433105
411.107422	2623.959473
409.214844	2574.432373
407.324219	2597.5979
405.431641	2556.026123
403.537109	2610.880127
401.644531	2579.887207
399.75	2537.029053
