#Wave		#Intensity
1585.210938	27666.423828
1584.209961	27716.376953
1583.208984	27585.777344
1582.208008	27595.041016
1581.206055	27629.261719
1580.204102	27304.103516
1579.202148	27572.904297
1578.200195	27425.003906
1577.198242	27534.048828
1576.195313	27428.603516
1575.192383	27363.089844
1574.189453	27514.449219
1573.186523	27349.263672
1572.182617	27104.421875
1571.178711	26842.242188
1570.174805	26948.751953
1569.170898	26676.751953
1568.166992	26648.822266
1567.162109	26805.080078
1566.158203	26821.923828
1565.153320	26806.417969
1564.147461	26631.728516
1563.142578	27096.220703
1562.136719	26546.111328
1561.130859	27420.578125
1560.125000	27409.929688
1559.119141	27657.699219
1558.113281	28312.777344
1557.106445	28580.123047
1556.099609	28983.933594
1555.092773	29720.255859
1554.084961	29935.015625
1553.078125	30159.613281
1552.070313	30652.078125
1551.062500	31084.804688
1550.054688	31289.177734
1549.045898	31729.029297
1548.038086	32017.470703
1547.029297	32494.166016
1546.020508	32970.660156
1545.011719	33221.500000
1544.001953	33660.488281
1542.992188	33886.312500
1541.982422	34607.246094
1540.972656	34820.398438
1539.962891	35127.515625
1538.952148	35850.210938
1537.942383	36102.554688
1536.931641	35783.425781
1535.919922	36033.203125
1534.909180	35919.429688
1533.897461	35175.359375
1532.886719	35177.964844
1531.874023	34397.289063
1530.862305	33841.746094
1529.850586	33120.945313
1528.837891	32654.787109
1527.825195	32072.785156
1526.812500	31266.402344
1525.799805	30795.978516
1524.786133	30056.810547
1523.772461	29483.220703
1522.758789	29144.167969
1521.745117	28571.001953
1520.731445	28562.621094
1519.716797	28364.455078
1518.702148	27624.234375
1517.687500	27618.515625
1516.672852	27686.691406
1515.657227	27272.146484
1514.642578	27350.214844
1513.626953	27374.089844
1512.610352	27294.585938
1511.594727	27089.617188
1510.579102	27325.103516
1509.562500	27149.728516
1508.545898	27067.871094
1507.529297	27180.279297
1506.511719	27477.000000
1505.494141	27397.580078
1504.477539	27337.847656
1503.458984	27523.798828
1502.441406	27262.664063
1501.423828	27458.375000
1500.405273	27462.505859
1499.386719	27542.726563
1498.368164	27313.701172
1497.348633	27757.041016
1496.330078	27913.191406
1495.310547	27787.234375
1494.291016	27703.011719
1493.271484	27533.019531
1492.250977	28046.927734
1491.231445	27732.351563
1490.210938	27871.154297
1489.190430	27767.398438
1488.168945	27805.724609
1487.148438	27893.003906
1486.126953	28352.335938
1485.105469	28094.371094
1484.083984	28276.962891
1483.061523	28476.601563
1482.040039	28683.496094
1481.017578	28860.955078
1479.995117	28979.664063
1478.971680	29034.765625
1477.949219	29639.722656
1476.925781	29956.105469
1475.902344	30164.867188
1474.878906	30725.246094
1473.855469	31214.576172
1472.831055	31698.820313
1471.806641	31929.009766
1470.782227	32986.382813
1469.757813	33831.050781
1468.733398	34692.441406
1467.708008	35802.238281
1466.682617	37309.019531
1465.657227	38576.265625
1464.631836	40393.816406
1463.605469	41601.410156
1462.579102	43125.218750
1461.552734	44606.984375
1460.526367	45937.144531
1459.500000	46967.269531
1458.472656	47639.125000
1457.445313	47670.609375
1456.417969	48188.738281
1455.390625	48003.574219
1454.362305	47351.488281
1453.334961	46449.199219
1452.306641	45435.441406
1451.277344	44439.121094
1450.249023	43037.355469
1449.219727	41458.800781
1448.191406	40148.117188
1447.162109	38672.820313
1446.131836	37810.046875
1445.102539	36369.832031
1444.072266	35986.054688
1443.041992	34772.500000
1442.011719	34352.816406
1440.981445	33440.886719
1439.950195	32825.210938
1438.918945	32204.939453
1437.887695	31500.076172
1436.856445	31205.109375
1435.825195	30871.492188
1434.792969	30826.310547
1433.760742	30366.953125
1432.728516	29885.990234
1431.696289	29603.761719
1430.663086	29817.886719
1429.629883	29424.458984
1428.596680	28849.716797
1427.563477	28821.943359
1426.530273	28351.566406
1425.496094	28256.195313
1424.461914	28006.134766
1423.427734	27601.476563
1422.393555	27602.984375
1421.358398	27454.687500
1420.323242	27200.162109
1419.288086	26827.400391
1418.252930	26606.914063
1417.217773	26958.666016
1416.181641	26977.191406
1415.145508	26870.222656
1414.109375	27060.050781
1413.073242	27112.306641
1412.036133	27039.136719
1411.000000	27407.228516
1409.962891	27447.322266
1408.924805	28289.964844
1407.887695	28761.175781
1406.849609	29603.191406
1405.812500	30146.187500
1404.773438	31172.984375
1403.735352	31944.146484
1402.697266	32859.410156
1401.658203	33625.082031
1400.619141	33858.679688
1399.580078	34082.558594
1398.540039	34676.730469
1397.500977	34582.933594
1396.460938	34669.480469
1395.420898	34544.472656
1394.380859	34570.910156
1393.339844	34282.597656
1392.298828	34294.660156
1391.257813	33975.300781
1390.216797	33766.519531
1389.175781	33879.500000
1388.133789	34198.843750
1387.091797	34750.808594
1386.049805	35338.527344
1385.007813	35789.277344
1383.964844	36824.972656
1382.922852	37723.570313
1381.879883	38986.144531
1380.835938	39557.976563
1379.792969	40570.441406
1378.749023	41570.507813
1377.706055	41748.636719
1376.661133	42319.402344
1375.617188	42432.656250
1374.573242	42976.707031
1373.528320	43099.343750
1372.483398	42252.929688
1371.438477	42208.218750
1370.392578	41596.714844
1369.347656	41473.246094
1368.301758	41007.972656
1367.255859	40834.480469
1366.208984	39972.859375
1365.163086	39422.175781
1364.116211	39127.296875
1363.069336	39071.347656
1362.022461	38869.777344
1360.974609	38601.453125
1359.927734	38049.230469
1358.879883	38310.894531
1357.832031	38567.671875
1356.783203	38953.132813
1355.735352	38556.289063
1354.686523	39601.980469
1353.637695	39562.695313
1352.588867	40421.851563
1351.539063	41075.742188
1350.490234	42227.207031
1349.440430	43066.203125
1348.390625	44397.726563
1347.339844	46150.054688
1346.290039	47313.765625
1345.239258	48467.464844
1344.188477	49939.472656
1343.137695	51372.804688
1342.085938	52641.441406
1341.034180	53348.433594
1339.982422	54849.074219
1338.930664	55486.375000
1337.878906	56123.406250
1336.826172	56769.667969
1335.773438	57508.281250
1334.720703	57470.089844
1333.667969	57158.886719
1332.614258	56736.250000
1331.561523	56138.175781
1330.507813	55440.703125
1329.453125	54632.027344
1328.399414	53135.921875
1327.344727	52681.359375
1326.290039	51153.097656
1325.235352	50587.738281
1324.180664	50136.355469
1323.125000	49197.121094
1322.070313	48556.722656
1321.014648	48480.207031
1319.958008	48060.410156
1318.902344	47467.988281
1317.845703	46445.085938
1316.789063	45862.710938
1315.732422	44921.000000
1314.675781	43887.441406
1313.618164	42594.207031
1312.560547	42048.582031
1311.502930	40836.636719
1310.445313	39972.578125
1309.386719	38430.800781
1308.329102	37983.347656
1307.270508	37056.664063
1306.210938	35823.417969
1305.152344	35336.656250
1304.092773	34267.140625
1303.033203	33787.984375
1301.973633	33596.847656
1300.914063	33075.574219
1299.853516	32302.195313
1298.792969	32514.646484
1297.732422	31859.564453
1296.671875	31471.062500
1295.611328	31224.091797
1294.549805	31184.523438
1293.488281	31253.308594
1292.426758	31055.982422
1291.364258	30830.486328
1290.302734	31311.191406
1289.240234	31033.962891
1288.177734	30728.615234
1287.114258	30851.496094
1286.051758	31134.238281
1284.988281	30869.025391
1283.924805	31311.488281
1282.861328	31767.863281
1281.796875	31960.875000
1280.732422	32095.070313
1279.667969	32630.839844
1278.603516	32793.011719
1277.539063	33565.523438
1276.473633	34006.746094
1275.408203	34436.042969
1274.342773	34668.074219
1273.277344	34803.828125
1272.210938	35087.269531
1271.145508	35117.359375
1270.079102	35318.562500
1269.011719	34523.578125
1267.945313	34305.375000
1266.877930	33869.378906
1265.810547	33189.972656
1264.743164	32644.332031
1263.674805	31942.054688
1262.607422	31057.492188
1261.539063	30397.968750
1260.470703	30082.669922
1259.401367	29440.003906
1258.333008	29265.367188
1257.263672	28517.917969
1256.194336	28289.775391
1255.125000	27792.937500
1254.054688	27688.892578
1252.985352	27105.945313
1251.915039	26920.333984
1250.843750	26779.167969
1249.773438	26311.185547
1248.702148	26335.943359
1247.630859	26031.619141
1246.559570	25869.753906
1245.488281	25563.320313
1244.416016	25798.119141
1243.343750	25505.818359
1242.271484	25285.910156
1241.199219	25320.158203
1240.125977	25228.550781
1239.053711	25423.552734
1237.980469	25320.310547
1236.906250	25438.355469
1235.833008	25477.179688
1234.758789	25534.611328
1233.684570	25361.603516
1232.610352	25407.396484
1231.536133	25669.521484
1230.460938	25524.500000
1229.385742	25477.207031
1228.310547	25334.607422
1227.235352	25401.267578
1226.159180	25491.134766
1225.083008	25432.261719
1224.006836	25775.281250
1222.930664	25574.701172
1221.853516	25492.623047
1220.777344	25930.582031
1219.700195	25880.953125
1218.622070	26216.537109
1217.544922	26306.062500
1216.466797	26358.433594
1215.388672	26784.136719
1214.310547	26572.074219
1213.232422	27315.107422
1212.153320	27193.398438
1211.074219	27813.177734
1209.995117	28075.951172
1208.916016	27792.031250
1207.835938	28265.400391
1206.755859	28467.710938
1205.675781	28251.003906
1204.595703	28351.408203
1203.514648	28636.849609
1202.434570	28554.392578
1201.353516	28229.154297
1200.271484	28482.062500
1199.190430	28119.988281
1198.108398	27896.730469
1197.026367	27650.460938
1195.944336	27572.927734
1194.862305	27146.681641
1193.779297	27350.994141
1192.696289	26661.794922
1191.613281	26305.251953
1190.530273	26149.621094
1189.446289	25703.361328
1188.362305	25351.861328
1187.278320	24859.835938
1186.194336	24845.283203
1185.109375	24678.595703
1184.024414	24447.449219
1182.939453	24246.351563
1181.854492	23923.248047
1180.768555	23761.498047
1179.683594	23929.095703
1178.597656	23841.080078
1177.510742	23417.058594
1176.424805	23384.416016
1175.337891	23232.150391
1174.250977	23406.572266
1173.164063	23003.697266
1172.077148	23056.232422
1170.989258	22998.406250
1169.901367	22988.865234
1168.813477	22921.882813
1167.724609	23091.541016
1166.636719	22778.812500
1165.547852	23005.830078
1164.458984	23324.576172
1163.369141	23018.880859
1162.280273	23488.935547
1161.190430	23437.994141
1160.100586	23221.921875
1159.010742	23815.458984
1157.919922	23675.054688
1156.829102	23915.226563
1155.738281	23939.865234
1154.647461	24177.582031
1153.555664	24428.937500
1152.464844	24480.925781
1151.373047	24317.650391
1150.280273	24564.228516
1149.188477	24703.125000
1148.095703	24603.972656
1147.002930	24676.449219
1145.910156	24643.673828
1144.817383	24533.160156
1143.723633	24308.373047
1142.629883	24149.972656
1141.536133	24197.318359
1140.441406	24082.417969
1139.347656	23894.464844
1138.252930	23804.796875
1137.158203	23639.814453
1136.062500	23696.341797
1134.967773	23565.685547
1133.872070	23341.525391
1132.776367	23388.949219
1131.679688	23117.021484
1130.583984	23029.923828
1129.487305	23366.927734
1128.390625	23131.646484
1127.292969	23502.664063
1126.196289	23340.361328
1125.098633	23016.392578
1124.000977	23232.320313
1122.903320	23165.806641
1121.804688	22935.416016
1120.706055	22916.789063
1119.607422	23164.400391
1118.508789	22906.853516
1117.409180	22835.923828
1116.310547	22733.189453
1115.210938	22819.197266
1114.110352	22439.199219
1113.010742	22502.503906
1111.910156	23054.265625
1110.809570	22588.138672
1109.708984	22587.775391
1108.607422	22535.189453
1107.506836	22446.300781
1106.405273	22262.128906
1105.303711	22316.287109
1104.201172	22170.785156
1103.098633	22365.556641
1101.996094	21766.583984
1100.893555	21662.099609
1099.791016	21745.785156
1098.687500	21795.439453
1097.583984	22001.400391
1096.480469	21824.462891
1095.376953	21538.898438
1094.272461	21916.847656
1093.167969	21733.246094
1092.063477	21948.039063
1090.958008	21952.308594
1089.853516	22359.240234
1088.748047	22184.742188
1087.642578	22482.904297
1086.536133	22559.388672
1085.430664	22592.892578
1084.324219	22963.076172
1083.217773	23466.388672
1082.110352	23285.089844
1081.003906	23648.099609
1079.896484	23708.412109
1078.789063	24120.826172
1077.680664	24212.601563
1076.573242	24180.238281
1075.464844	24375.720703
1074.356445	24415.500000
1073.247070	24383.109375
1072.138672	24269.576172
1071.029297	23998.324219
1069.919922	23950.265625
1068.809570	23264.683594
1067.700195	23719.066406
1066.589844	23524.726563
1065.479492	23472.302734
1064.368164	22857.191406
1063.257813	22685.664063
1062.146484	22583.955078
1061.035156	22453.046875
1059.922852	22326.691406
1058.811523	22216.128906
1057.699219	21867.337891
1056.586914	21873.783203
1055.473633	21700.472656
1054.361328	21911.371094
1053.248047	21738.125000
1052.134766	21508.818359
1051.021484	21447.978516
1049.907227	21658.740234
1048.792969	21393.691406
1047.678711	21723.271484
1046.564453	21359.630859
1045.449219	21267.486328
1044.333984	21738.115234
1043.218750	21619.027344
1042.103516	21596.351563
1040.987305	21403.406250
1039.871094	21436.783203
1038.754883	21631.388672
1037.638672	21501.250000
1036.521484	21624.119141
1035.404297	21791.693359
1034.287109	21789.138672
1033.169922	21797.769531
1032.051758	22139.640625
1030.933594	21971.537109
1029.815430	22145.546875
1028.697266	22033.388672
1027.578125	22457.578125
1026.458984	22508.486328
1025.339844	22336.009766
1024.220703	22558.867188
1023.100586	22507.011719
1021.980469	22767.675781
1020.860352	22704.634766
1019.740234	22623.771484
1018.619141	22761.544922
1017.498047	22821.201172
1016.376953	22526.310547
1015.255859	22750.947266
1014.133789	22654.552734
1013.011719	22660.693359
1011.889648	22709.156250
1010.767578	22902.365234
1009.644531	22696.904297
1008.521484	22589.486328
1007.398438	22722.492188
1006.274414	22630.687500
1005.151367	22701.328125
1004.027344	22502.800781
1002.902344	22253.212891
1001.778320	22294.982422
1000.653320	22390.078125
999.528320	22311.791016
998.403320	22413.501953
997.278320	22157.535156
996.152344	22563.484375
995.026367	22414.167969
993.900391	22666.707031
992.773438	22530.748047
991.646484	23016.125000
990.519531	23066.486328
989.392578	23331.957031
988.265625	23422.134766
987.137695	23898.007813
986.009766	23932.605469
984.881836	23984.914063
983.752930	23946.365234
982.624023	24065.089844
981.495117	24197.046875
980.366211	23941.503906
979.236328	24004.808594
978.106445	23625.492188
976.976563	23613.611328
975.846680	23469.015625
974.715820	23189.580078
973.585938	22863.835938
972.454102	22814.548828
971.323242	22546.488281
970.191406	22203.423828
969.060547	22260.341797
967.927734	22200.179688
966.795898	22424.880859
965.663086	22124.082031
964.530273	22304.554688
963.397461	22471.707031
962.264648	22424.791016
961.130859	22261.000000
959.997070	22293.531250
958.863281	22372.343750
957.729492	22226.298828
956.594727	22366.789063
955.459961	22370.621094
954.325195	22332.597656
953.189453	22272.568359
952.053711	22102.480469
950.917969	22121.767578
949.782227	22174.054688
948.646484	21931.490234
947.509766	21726.425781
946.373047	21983.287109
945.235352	21954.197266
944.098633	22144.941406
942.960938	21997.146484
941.823242	22179.001953
940.685547	22152.083984
939.546875	22182.279297
938.408203	22355.183594
937.269531	22697.044922
936.129883	22724.896484
934.991211	22869.031250
933.851563	23054.783203
932.711914	23231.675781
931.571289	23537.865234
930.431641	23593.988281
929.291016	23775.019531
928.149414	23883.652344
927.008789	23779.720703
925.867188	23739.353516
924.725586	23556.660156
923.583984	23518.546875
922.441406	23344.736328
921.299805	23107.537109
920.157227	22774.173828
919.013672	22259.398438
917.871094	22173.496094
916.727539	21816.507813
915.583984	21857.523438
914.439453	21535.730469
913.295898	21530.902344
912.151367	21333.839844
911.006836	21289.744141
909.861328	21029.496094
908.716797	21155.761719
907.571289	21087.720703
906.424805	21039.347656
905.279297	20857.919922
904.132813	20781.263672
902.986328	20990.294922
901.839844	20937.619141
900.692383	20804.320313
899.545898	20851.945313
898.398438	21328.738281
897.250000	21158.406250
896.102539	21251.646484
894.954102	20979.080078
893.805664	21052.722656
892.656250	21010.994141
891.507813	21023.675781
890.358398	21077.677734
889.208984	20748.904297
888.058594	20742.060547
886.908203	20898.250000
885.758789	20813.136719
884.607422	20638.976563
883.457031	20675.603516
882.305664	20820.798828
881.154297	20909.474609
880.002930	20505.339844
878.850586	20392.205078
877.698242	20446.195313
876.545898	20758.308594
875.393555	20564.941406
874.240234	20549.462891
873.086914	20544.830078
871.933594	20371.140625
870.780273	20630.906250
869.625977	20247.132813
868.471680	20357.357422
867.317383	20318.117188
866.162109	20226.935547
865.007813	20402.017578
863.852539	20206.984375
862.696289	20260.833984
861.541016	20176.228516
860.384766	20152.208984
859.228516	20236.298828
858.072266	19985.314453
856.915039	20279.019531
855.757813	19971.960938
854.600586	20107.849609
853.442383	20392.683594
852.285156	19941.146484
851.126953	20558.306641
849.968750	20445.751953
848.809570	20553.322266
847.650391	20384.730469
846.491211	20423.250000
845.332031	20284.947266
844.171875	20394.605469
843.012695	20461.107422
841.851563	20391.833984
840.691406	20507.849609
839.530273	20212.455078
838.369141	20263.859375
837.208008	20293.712891
836.046875	20297.722656
834.884766	20392.103516
833.722656	20292.824219
832.560547	20701.171875
831.397461	20410.490234
830.234375	20502.601563
829.071289	20345.351563
827.908203	20493.302734
826.744141	20658.371094
825.580078	20434.601563
824.416016	20451.437500
823.251953	20453.236328
822.086914	20549.472656
820.921875	20283.007813
819.756836	20550.869141
818.590820	20601.968750
817.425781	20397.857422
816.259766	20436.101563
815.092773	20467.896484
813.926758	20317.523438
812.759766	20527.154297
811.592773	20276.158203
810.424805	20177.320313
809.257813	20138.476563
808.089844	20298.718750
806.920898	20202.078125
805.752930	20334.414063
804.583984	20438.880859
803.415039	20169.044922
802.246094	20271.359375
801.076172	20388.589844
799.906250	19997.128906
798.736328	20317.345703
797.566406	20218.726563
796.395508	20252.564453
795.224609	20615.203125
794.053711	20853.861328
792.881836	21158.572266
791.710938	21064.132813
790.538086	21541.445313
789.366211	21775.402344
788.194336	22235.273438
787.021484	22656.558594
785.848633	22459.576172
784.674805	22486.416016
783.500977	22214.996094
782.327148	21835.078125
781.153320	21678.912109
779.979492	21582.423828
778.804688	21383.816406
777.629883	21049.111328
776.454102	21127.275391
775.279297	21141.593750
774.103516	20998.548828
772.927734	21070.287109
771.750977	21165.371094
770.575195	21111.662109
769.398438	21385.146484
768.220703	21732.845703
767.043945	22050.654297
765.866211	21935.216797
764.688477	22106.375000
763.510742	22389.921875
762.332031	22756.080078
761.153320	23056.314453
759.974609	23712.671875
758.794922	24663.423828
757.616211	25630.697266
756.436523	26692.888672
755.255859	28332.988281
754.076172	30656.507813
752.895508	33086.964844
751.714844	36363.195313
750.533203	39991.414063
749.352539	43785.156250
748.170898	48338.828125
746.988281	51809.507813
745.806641	55251.097656
744.624023	58027.214844
743.441406	60863.355469
742.258789	63789.066406
741.075195	67353.625000
739.891602	71125.671875
738.708008	75033.257813
737.523438	78413.304688
736.339844	80432.367188
735.155273	80226.093750
733.969727	78315.070313
732.785156	73723.781250
731.599609	67814.367188
730.414063	60859.738281
729.227539	53533.066406
728.041992	46544.851563
726.855469	40832.496094
725.667969	35712.597656
724.481445	32225.154297
723.293945	29210.962891
722.106445	27271.759766
720.918945	26164.775391
719.730469	25014.111328
718.541992	23826.105469
717.353516	22985.669922
716.164063	22850.023438
714.975586	22209.904297
713.786133	22080.798828
712.595703	21716.410156
711.406250	21335.382813
710.215820	21028.039063
709.025391	21203.787109
707.833984	21066.656250
706.642578	20937.980469
705.451172	20973.035156
704.259766	20785.697266
703.068359	21273.802734
701.875977	21191.322266
700.683594	21339.486328
699.490234	21741.189453
698.297852	22513.601563
697.104492	23335.937500
695.910156	24105.529297
694.716797	24594.167969
693.522461	25266.810547
692.328125	25690.068359
691.132813	25943.630859
689.938477	26029.708984
688.743164	26063.455078
687.547852	25451.027344
686.351563	25073.031250
685.155273	24686.847656
683.958984	24394.875000
682.762695	23551.488281
681.565430	23268.261719
680.368164	22402.548828
679.170898	22226.189453
677.973633	22308.732422
676.775391	22007.265625
675.577148	22267.154297
674.378906	22116.011719
673.179688	22035.839844
671.980469	21863.970703
670.781250	21798.480469
669.581055	21389.175781
668.381836	21648.837891
667.181641	21433.466797
665.980469	21136.976563
664.780273	21300.740234
663.579102	21518.546875
662.377930	21297.154297
661.175781	21512.777344
659.973633	21628.455078
658.771484	21947.876953
657.569336	22169.431641
656.367188	22519.757813
655.164063	23167.093750
653.960938	23469.238281
652.756836	23939.492188
651.552734	24187.322266
650.348633	24947.861328
649.144531	25151.748047
647.939453	25473.830078
646.735352	25729.367188
645.529297	26007.601563
644.324219	26206.900391
643.118164	26395.740234
641.912109	26493.283203
640.706055	26211.533203
639.499023	25654.347656
638.292969	25501.345703
637.084961	24834.818359
635.877930	24607.537109
634.669922	24038.810547
633.461914	24022.904297
632.253906	23704.925781
631.044922	23807.009766
629.836914	23280.347656
628.626953	22993.769531
627.417969	22949.175781
626.208008	22586.337891
624.998047	22000.521484
623.788086	21770.271484
622.577148	21513.279297
621.366211	21231.626953
620.155273	21146.208984
618.944336	20641.880859
617.732422	20566.953125
616.520508	20197.072266
615.308594	20015.037109
614.095703	20068.136719
612.882813	19556.388672
611.669922	19918.703125
610.457031	19514.369141
609.243164	19542.808594
608.029297	19513.570313
606.815430	19474.048828
605.600586	19292.505859
604.385742	19255.109375
603.170898	19476.982422
601.955078	19472.470703
600.740234	19729.152344
599.524414	19790.378906
598.307617	19822.794922
597.091797	19733.941406
595.875000	19735.533203
594.658203	19753.556641
593.440430	19888.634766
592.222656	19713.603516
591.004883	20047.750000
589.787109	19866.603516
588.568359	19810.701172
587.349609	19799.957031
586.130859	19838.435547
584.912109	19483.212891
583.692383	19821.041016
582.472656	19853.335938
581.251953	20072.076172
580.032227	20120.683594
578.811523	20363.833984
577.589844	20561.822266
576.369141	20704.447266
575.147461	21139.671875
573.925781	21341.431641
572.703125	21575.828125
571.481445	22294.828125
570.258789	22864.228516
569.035156	22832.349609
567.812500	23305.300781
566.588867	23882.238281
565.365234	23737.785156
564.140625	23854.822266
562.916992	24208.660156
561.692383	23992.779297
560.466797	23864.755859
559.242188	23900.029297
558.016602	23362.044922
556.791016	23138.394531
555.564453	22478.490234
554.337891	22395.808594
553.111328	21793.447266
551.884766	21071.144531
550.657227	20972.544922
549.429688	20645.882813
548.202148	20319.369141
546.974609	20080.542969
545.746094	19976.154297
544.517578	19721.238281
543.288086	19800.068359
542.058594	19661.238281
540.829102	19882.380859
539.599609	19729.363281
538.370117	19621.128906
537.139648	19673.470703
535.909180	19573.423828
534.677734	19656.212891
533.446289	19521.695313
532.214844	19488.742188
530.983398	19321.849609
529.750977	19323.451172
528.519531	19296.650391
527.286133	19105.576172
526.053711	18955.144531
524.820313	19102.787109
523.586914	19337.511719
522.353516	19033.128906
521.119141	19148.234375
519.884766	19281.513672
518.650391	19198.064453
517.415039	18981.042969
516.179688	18996.875000
514.944336	18960.087891
513.708984	18963.777344
