#Wave		#Intensity
2109.224609	3180.579346
2107.712891	3185.541260
2106.201172	3171.623535
2104.687500	3289.971924
2103.175781	3175.211182
2101.662109	3230.711182
2100.150391	3203.578369
2098.636719	3262.352051
2097.123047	3286.419678
2095.607422	3302.221436
2094.093750	3268.493652
2092.578125	3226.528320
2091.064453	3364.436035
2089.548828	3155.849854
2088.033203	3212.895996
2086.517578	3246.832031
2085.000000	3288.996582
2083.484375	3311.363525
2081.966797	3330.425293
2080.449219	3361.011719
2078.931641	3304.283203
2077.414063	3366.152100
2075.894531	3268.284912
2074.376953	3254.412598
2072.857422	3238.900635
2071.337891	3203.650146
2069.818359	3377.339355
2068.298828	3289.443115
2066.777344	3232.827881
2065.257813	3233.777344
2063.736328	3297.185547
2062.214844	3220.885254
2060.693359	3313.842285
2059.171875	3212.932129
2057.648438	3302.566406
2056.126953	3250.958984
2054.603516	3338.905029
2053.080078	3380.860107
2051.556641	3358.804199
2050.033203	3335.117188
2048.507813	3265.516602
2046.984375	3286.134033
2045.458984	3357.565186
2043.933594	3330.620850
2042.408203	3352.849854
2040.882813	3304.618652
2039.355469	3313.739502
2037.830078	3352.334717
2036.302734	3274.662842
2034.775391	3259.229248
2033.248047	3342.000244
2031.718750	3338.013184
2030.191406	3302.944824
2028.662109	3264.620361
2027.134766	3306.438477
2025.605469	3282.843506
2024.076172	3340.985352
2022.544922	3271.635986
2021.015625	3310.149170
2019.484375	3353.546387
2017.955078	3292.404297
2016.423828	3162.711182
2014.892578	3287.734131
2013.359375	3322.938477
2011.828125	3286.331299
2010.294922	3342.729004
2008.761719	3232.735840
2007.230469	3246.722656
2005.695313	3241.139404
2004.162109	3282.828613
2002.628906	3280.499268
2001.093750	3309.127686
1999.558594	3311.680420
1998.023438	3382.634033
1996.488281	3236.997559
1994.953125	3207.005615
1993.417969	3277.936035
1991.880859	3326.054932
1990.343750	3294.436035
1988.806641	3279.096191
1987.269531	3283.276855
1985.732422	3228.925293
1984.193359	3316.015137
1982.656250	3242.177979
1981.117188	3288.607910
1979.578125	3281.410645
1978.039063	3305.074463
1976.500000	3344.966064
1974.958984	3267.954102
1973.417969	3242.913330
1971.878906	3297.397217
1970.337891	3262.626221
1968.796875	3331.680908
1967.253906	3264.483398
1965.712891	3268.654297
1964.169922	3293.896240
1962.626953	3320.748047
1961.083984	3384.855957
1959.541016	3325.818115
1957.998047	3278.142578
1956.455078	3279.066162
1954.910156	3270.275391
1953.365234	3405.544189
1951.820313	3301.252930
1950.275391	3350.708008
1948.730469	3283.676758
1947.183594	3295.917969
1945.638672	3288.751465
1944.091797	3296.136719
1942.544922	3293.821533
1940.998047	3257.574463
1939.449219	3334.428711
1937.902344	3290.112061
1936.353516	3308.792725
1934.804688	3345.224854
1933.255859	3317.075439
1931.707031	3250.206543
1930.158203	3304.375732
1928.607422	3287.544434
1927.058594	3361.035889
1925.507813	3313.563232
1923.957031	3320.921875
1922.406250	3292.818848
1920.853516	3334.018311
1919.302734	3362.311768
1917.750000	3298.781250
1916.197266	3293.251709
1914.644531	3403.648193
1913.091797	3277.370361
1911.539063	3328.176514
1909.984375	3298.509521
1908.431641	3272.072510
1906.876953	3232.779785
1905.322266	3267.471924
1903.767578	3353.594727
1902.210938	3275.733398
1900.656250	3295.931396
1899.099609	3404.486328
1897.542969	3333.088623
1895.986328	3391.804443
1894.429688	3288.326904
1892.873047	3255.525635
1891.314453	3278.911621
1889.755859	3358.448730
1888.199219	3335.278809
1886.640625	3296.079346
1885.080078	3308.211182
1883.521484	3307.511963
1881.960938	3319.635986
1880.402344	3309.318848
1878.841797	3335.857422
1877.281250	3296.706787
1875.720703	3342.455322
1874.158203	3324.135498
1872.597656	3277.007324
1871.035156	3317.928955
1869.472656	3366.834473
1867.910156	3332.525635
1866.347656	3330.221924
1864.783203	3297.534668
1863.220703	3379.978271
1861.656250	3302.535400
1860.091797	3386.541260
1858.527344	3337.890625
1856.962891	3255.712646
1855.396484	3322.105957
1853.832031	3326.194824
1852.265625	3271.211426
1850.699219	3434.924316
1849.132813	3333.662354
1847.566406	3299.453125
1845.998047	3276.424316
1844.431641	3350.688232
1842.863281	3386.653320
1841.294922	3271.160645
1839.726563	3329.440186
1838.156250	3301.648193
1836.587891	3382.200195
1835.017578	3303.439453
1833.449219	3317.073975
1831.878906	3276.570557
1830.306641	3398.445557
1828.736328	3340.436035
1827.166016	3312.681885
1825.593750	3342.207031
1824.021484	3344.682129
1822.449219	3316.944092
1820.876953	3282.858643
1819.304688	3326.669434
1817.730469	3337.090576
1816.158203	3403.113525
1814.583984	3386.510742
1813.009766	3338.153076
1811.435547	3321.570801
1809.859375	3405.002197
1808.285156	3420.154053
1806.708984	3292.492432
1805.132813	3312.420410
1803.556641	3311.720947
1801.980469	3337.979248
1800.404297	3294.468262
1798.826172	3350.835205
1797.248047	3315.263184
1795.671875	3338.329102
1794.093750	3271.093506
1792.513672	3279.905029
1790.935547	3253.877930
1789.355469	3307.014893
1787.777344	3303.150879
1786.197266	3277.135010
1784.617188	3328.650635
1783.035156	3308.967041
1781.455078	3328.826172
1779.873047	3364.487305
1778.292969	3385.906494
1776.710938	3284.046631
1775.128906	3379.736084
1773.544922	3282.659180
1771.962891	3330.926514
1770.378906	3363.383057
1768.794922	3343.727783
1767.212891	3283.042725
1765.626953	3253.944092
1764.042969	3280.077637
1762.458984	3304.622803
1760.873047	3256.612793
1759.287109	3356.834717
1757.701172	3234.743408
1756.115234	3238.788086
1754.529297	3288.526611
1752.941406	3390.231445
1751.355469	3313.912354
1749.767578	3396.672119
1748.179688	3262.131104
1746.591797	3341.718262
1745.001953	3329.995605
1743.414063	3356.039307
1741.824219	3267.238525
1740.234375	3414.383545
1738.644531	3393.220459
1737.054688	3400.363281
1735.462891	3361.922607
1733.873047	3419.353271
1732.281250	3396.635254
1730.689453	3326.804688
1729.097656	3351.227295
1727.505859	3436.871826
1725.912109	3422.017090
1724.320313	3474.652588
1722.726563	3429.983643
1721.132813	3360.233398
1719.539063	3448.921387
1717.945313	3476.416748
1716.349609	3428.648682
1714.755859	3440.462158
1713.160156	3469.508301
1711.564453	3374.769287
1709.968750	3491.535645
1708.371094	3465.739258
1706.775391	3378.889160
1705.177734	3423.570801
1703.580078	3465.103027
1701.982422	3465.933838
1700.384766	3405.751709
1698.787109	3375.312500
1697.187500	3448.094238
1695.587891	3417.658447
1693.990234	3460.701172
1692.390625	3455.279541
1690.789063	3487.358398
1689.189453	3450.690918
1687.587891	3457.768311
1685.988281	3553.844971
1684.386719	3504.697021
1682.785156	3522.683350
1681.181641	3556.266357
1679.580078	3586.714600
1677.976563	3568.796387
1676.373047	3563.361084
1674.769531	3570.400879
1673.166016	3588.348877
1671.562500	3554.859863
1669.957031	3540.082520
1668.353516	3598.527832
1666.748047	3585.304199
1665.142578	3620.357666
1663.537109	3639.827881
1661.929688	3609.481934
1660.324219	3703.640869
1658.716797	3695.075439
1657.109375	3689.624268
1655.501953	3870.794434
1653.894531	3803.114502
1652.285156	3827.178711
1650.677734	3969.349365
1649.068359	3889.260254
1647.458984	3964.555664
1645.849609	3965.266357
1644.240234	3928.708008
1642.628906	4027.234131
1641.019531	3973.603516
1639.408203	4037.936768
1637.796875	4128.618652
1636.185547	4037.770996
1634.572266	4199.753418
1632.960938	4067.064209
1631.347656	4204.167480
1629.734375	4195.523926
1628.121094	4202.378906
1626.507813	4347.110840
1624.894531	4304.365723
1623.279297	4337.517578
1621.664063	4331.949707
1620.048828	4434.736816
1618.433594	4543.669922
1616.818359	4572.099609
1615.203125	4552.562988
1613.585938	4695.425293
1611.968750	4728.442383
1610.351563	4936.134766
1608.734375	4857.802734
1607.117188	5002.022461
1605.498047	4988.596680
1603.878906	4922.659668
1602.261719	5097.657715
1600.640625	5093.482422
1599.021484	4907.162109
1597.402344	4867.532715
1595.781250	4860.322754
1594.162109	4814.549316
1592.541016	4736.406738
1590.919922	4900.386719
1589.296875	4785.259277
1587.675781	4811.980957
1586.052734	4803.248535
1584.429688	4751.381348
1582.806641	4830.463379
1581.183594	4814.031738
1579.560547	4646.718750
1577.935547	4745.783203
1576.312500	4686.286133
1574.687500	4677.591309
1573.062500	4611.980469
1571.435547	4684.819336
1569.810547	4642.299805
1568.183594	4607.484863
1566.558594	4727.925293
1564.931641	4625.491211
1563.304688	4642.937988
1561.675781	4635.800293
1560.048828	4667.058105
1558.419922	4561.652344
1556.791016	4605.192383
1555.162109	4627.227051
1553.533203	4652.321289
1551.904297	4563.881836
1550.273438	4674.868164
1548.642578	4560.393066
1547.011719	4622.272461
1545.380859	4587.561035
1543.750000	4537.539551
1542.119141	4486.007324
1540.486328	4420.710449
1538.853516	4531.558105
1537.220703	4518.336914
1535.587891	4495.936523
1533.955078	4418.448242
1532.320313	4446.572754
1530.685547	4300.286621
1529.052734	4406.426758
1527.416016	4315.260742
1525.781250	4459.571777
1524.146484	4339.391602
1522.509766	4388.888672
1520.873047	4410.862793
1519.236328	4385.474609
1517.599609	4326.499512
1515.962891	4362.213379
1514.324219	4317.006348
1512.687500	4326.761230
1511.048828	4254.114746
1509.410156	4317.271973
1507.771484	4304.141602
1506.130859	4226.971191
1504.492188	4206.241699
1502.851563	4205.336426
1501.210938	4111.473145
1499.570313	4147.153320
1497.927734	4117.318359
1496.287109	4127.091309
1494.644531	4174.924805
1493.001953	4105.523438
1491.359375	4019.410400
1489.716797	4132.663574
1488.074219	4083.091797
1486.429688	4012.247803
1484.785156	3985.531738
1483.140625	3967.948486
1481.496094	3973.172119
1479.851563	4023.981934
1478.207031	4015.516602
1476.560547	4029.839355
1474.914063	3913.551758
1473.267578	3896.004883
1471.621094	4040.890137
1469.972656	3980.828125
1468.326172	3910.170410
1466.677734	3968.488281
1465.029297	3941.846680
1463.380859	3975.870361
1461.732422	3929.529541
1460.082031	3946.867676
1458.431641	4093.004150
1456.783203	3908.798828
1455.132813	3956.423340
1453.480469	3896.505859
1451.830078	4024.356689
1450.177734	4020.457520
1448.527344	4008.992676
1446.875000	3912.800537
1445.220703	3899.850586
1443.568359	3832.458984
1441.916016	3978.300293
1440.261719	3842.891113
1438.607422	3872.286133
1436.953125	3912.245850
1435.298828	3900.821533
1433.642578	3973.986816
1431.988281	3882.517090
1430.332031	3757.871094
1428.675781	3784.225342
1427.019531	3777.366943
1425.361328	3731.281982
1423.705078	3731.979736
1422.046875	3746.250000
1420.388672	3660.997559
1418.730469	3682.813965
1417.072266	3715.170654
1415.412109	3682.718994
1413.753906	3787.373535
1412.093750	3608.819580
1410.433594	3638.151367
1408.773438	3671.986328
1407.111328	3746.447021
1405.451172	3701.989502
1403.789063	3686.137695
1402.126953	3694.359863
1400.464844	3686.035400
1398.802734	3701.770996
1397.138672	3687.434814
1395.474609	3719.694580
1393.812500	3717.380859
1392.146484	3739.103516
1390.482422	3700.739502
1388.818359	3722.455811
1387.152344	3735.154541
1385.486328	3738.841797
1383.820313	3696.008057
1382.154297	3729.707275
1380.488281	3806.890137
1378.820313	3738.574951
1377.154297	3746.753662
1375.486328	3702.464111
1373.818359	3809.557129
1372.148438	3861.164795
1370.480469	3840.846436
1368.810547	3808.554932
1367.140625	3747.828125
1365.470703	3709.582520
1363.800781	3780.610840
1362.130859	3692.994385
1360.458984	3789.427002
1358.787109	3722.786133
1357.115234	3753.372803
1355.443359	3683.778320
1353.771484	3705.391357
1352.097656	3709.061768
1350.423828	3826.278809
1348.751953	3753.740234
1347.076172	3708.114502
1345.402344	3737.162109
1343.728516	3764.703857
1342.052734	3711.642334
1340.376953	3695.906250
1338.701172	3815.927002
1337.025391	3858.340088
1335.347656	3827.669922
1333.671875	3864.098145
1331.994141	3739.541016
1330.316406	3838.556641
1328.638672	3754.283691
1326.960938	3856.230957
1325.281250	3783.903564
1323.601563	3876.865723
1321.921875	3721.209717
1320.242188	3793.309814
1318.562500	3832.645752
1316.880859	3784.201172
1315.201172	3738.751953
1313.519531	3669.532959
1311.837891	3787.645264
1310.154297	3777.892822
1308.472656	3784.488770
1306.789063	3737.602295
1305.105469	3760.540771
1303.421875	3868.106689
1301.738281	3680.199463
1300.054688	3747.660889
1298.369141	3683.025635
1296.683594	3710.399658
1294.998047	3733.311523
1293.312500	3647.960449
1291.626953	3601.193848
1289.939453	3587.057129
1288.253906	3612.938477
1286.566406	3573.617432
1284.878906	3621.708496
1283.189453	3500.950439
1281.501953	3538.671387
1279.812500	3567.493652
1278.123047	3537.104248
1276.433594	3604.383545
1274.744141	3548.850586
1273.052734	3528.837402
1271.363281	3497.003418
1269.671875	3545.012451
1267.980469	3412.684814
1266.289063	3530.140869
1264.595703	3504.242676
1262.904297	3441.430420
1261.210938	3443.619873
1259.517578	3376.419189
1257.824219	3504.083496
1256.128906	3413.287354
1254.435547	3470.068359
1252.740234	3501.747803
1251.044922	3413.961182
1249.349609	3486.921387
1247.652344	3413.916992
1245.957031	3508.949707
1244.259766	3508.168945
1242.562500	3460.249756
1240.865234	3437.388184
1239.167969	3374.781006
1237.468750	3416.719971
1235.769531	3336.483643
1234.072266	3422.554688
1232.371094	3292.334473
1230.671875	3285.717285
1228.972656	3345.272949
1227.271484	3363.638428
1225.570313	3292.337891
1223.869141	3356.259521
1222.167969	3361.386963
1220.464844	3257.819824
1218.763672	3324.642334
1217.060547	3313.622803
1215.357422	3311.414551
1213.654297	3375.244385
1211.949219	3314.335938
1210.246094	3303.326904
1208.541016	3289.389648
1206.835938	3356.098389
1205.130859	3346.552246
1203.423828	3320.889404
1201.718750	3315.750244
1200.011719	3269.596924
1198.304688	3201.495605
1196.597656	3211.027832
1194.888672	3312.780518
1193.181641	3186.171875
1191.472656	3239.597412
1189.763672	3171.577393
1188.054688	3192.804688
1186.343750	3263.738525
1184.634766	3303.939941
1182.923828	3165.808838
1181.212891	3251.312744
1179.501953	3275.418701
1177.791016	3268.840576
1176.078125	3256.424072
1174.365234	3182.694580
1172.652344	3079.805664
1170.939453	3222.124268
1169.226563	3095.928467
1167.511719	3105.442627
1165.798828	3100.369141
1164.083984	3109.877441
1162.369141	3109.177490
1160.652344	3102.648193
1158.937500	3131.089355
1157.220703	3150.777588
1155.503906	3157.349609
1153.787109	3118.781738
1152.070313	3119.534424
1150.351563	3097.000732
1148.632813	3070.111816
1146.916016	3025.778320
1145.195313	3010.552002
1143.476563	2998.240234
1141.757813	3030.999023
1140.037109	3007.060547
1138.316406	3007.834473
1136.595703	2979.553223
1134.875000	2978.880127
1133.152344	2950.617432
1131.429688	2961.564453
1129.708984	2960.894775
1127.984375	3045.839600
1126.261719	2997.275635
1124.539063	2973.390381
1122.814453	2924.864014
1121.089844	2935.800293
1119.365234	2978.619141
1117.640625	2972.147949
1115.914063	2938.152588
1114.187500	2860.718262
1112.462891	2841.244141
1110.734375	2827.569824
1109.007813	2967.334473
1107.281250	2926.141113
1105.552734	2976.116211
1103.824219	2953.743652
1102.095703	2837.379883
1100.367188	2891.677734
1098.636719	2986.424805
1096.908203	2933.720215
1095.177734	2930.164063
1093.447266	2893.385010
1091.714844	2917.279053
1089.984375	2842.978516
1088.251953	2927.500977
1086.519531	2931.164795
1084.787109	2872.782715
1083.054688	2879.342041
1081.320313	2893.108887
1079.585938	2940.033203
1077.851563	2897.558105
1076.117188	2859.426025
1074.382813	2847.247314
1072.648438	2865.326172
1070.912109	2907.881104
1069.175781	2897.138672
1067.439453	2936.786865
1065.701172	2875.667725
1063.964844	2854.866699
1062.226563	2862.846924
1060.488281	2821.921631
1058.750000	2881.671631
1057.011719	2872.387939
1055.271484	2819.989258
1053.531250	2840.899658
1051.791016	2830.194092
1050.050781	2828.111084
1048.310547	2748.485107
1046.568359	2907.215332
1044.826172	2839.089844
1043.083984	2740.860107
1041.341797	2717.278076
1039.599609	2819.929443
1037.855469	2705.996338
1036.113281	2815.771240
1034.369141	2759.225098
1032.623047	2775.789551
1030.878906	2779.451904
1029.132813	2755.896973
1027.386719	2759.561279
1025.640625	2807.607422
1023.894531	2815.552002
1022.148438	2813.475098
1020.400391	2897.243164
1018.652344	2746.385498
1016.904297	2825.839600
1015.156250	2818.042236
1013.406250	2774.512451
1011.658203	2765.300537
1009.908203	2738.947510
1008.158203	2726.890869
1006.408203	2660.571045
1004.656250	2788.459961
1002.904297	2737.857910
1001.152344	2835.699951
999.400391	2749.439941
997.648438	2777.336670
995.896484	2743.896240
994.142578	2683.380615
992.388672	2694.166748
990.634766	2761.953857
988.878906	2694.350830
987.125000	2673.787109
985.369141	2697.381836
983.613281	2699.607910
981.857422	2735.996826
980.099609	2729.673340
978.343750	2726.197998
976.585938	2739.794434
974.828125	2707.874023
973.070313	2725.733398
971.310547	2746.427490
969.552734	2677.574951
967.792969	2743.738281
966.033203	2670.656006
964.273438	2736.790039
962.511719	2632.504639
960.750000	2753.979736
958.990234	2777.470215
957.226563	2674.665771
955.464844	2685.395996
953.703125	2725.904541
951.939453	2679.899902
950.175781	2619.739990
948.412109	2619.133789
946.648438	2690.791992
944.882813	2653.336670
943.117188	2655.554688
941.351563	2619.540283
939.585938	2597.698730
937.820313	2591.435303
936.052734	2595.079590
934.285156	2621.356445
932.517578	2585.390381
930.750000	2606.000488
928.982422	2618.119141
927.212891	2616.098145
925.443359	2619.729980
923.673828	2627.597900
921.904297	2601.565430
920.132813	2644.734131
918.361328	2600.357178
916.591797	2612.455322
914.818359	2607.614990
913.046875	2543.526611
911.275391	2597.940430
909.501953	2531.063477
907.728516	2630.566162
905.955078	2534.114502
904.179688	2561.706299
902.406250	2594.920410
900.630859	2563.331055
898.855469	2623.282471
897.080078	2697.283203
895.302734	2551.688721
893.525391	2621.449951
891.750000	2644.754395
889.970703	2710.241699
888.193359	2692.736328
886.416016	2673.833252
884.636719	2633.856445
882.857422	2602.329102
881.078125	2582.054443
879.296875	2667.125977
877.517578	2604.720459
875.736328	2539.536133
873.955078	2571.223877
872.173828	2518.706055
870.390625	2527.937744
868.609375	2528.749756
866.826172	2582.844482
865.042969	2479.904785
863.259766	2515.765137
861.474609	2496.961182
859.689453	2489.373047
857.904297	2528.006592
856.119141	2538.617188
854.333984	2545.022705
852.546875	2495.442139
850.761719	2455.679199
848.974609	2462.098877
847.185547	2523.060547
845.398438	2477.725342
843.609375	2556.827637
841.822266	2521.288330
840.031250	2502.532959
838.242188	2522.900879
836.453125	2456.668213
834.662109	2479.829346
832.871094	2495.999512
831.080078	2468.896973
829.289063	2391.575439
827.496094	2410.544189
825.703125	2467.159912
823.910156	2472.158203
822.117188	2496.670166
820.324219	2476.572510
818.529297	2456.484131
816.734375	2423.867676
814.939453	2466.472168
813.144531	2382.350342
811.347656	2420.767822
809.550781	2414.632080
807.755859	2459.980469
805.957031	2464.966309
804.160156	2400.412842
802.361328	2433.218262
800.564453	2434.036133
798.765625	2358.416504
796.964844	2410.660156
795.166016	2375.365234
793.365234	2447.022461
791.564453	2413.123779
789.763672	2388.957520
787.962891	2391.170410
786.160156	2407.256836
784.359375	2388.656982
782.556641	2382.547119
780.751953	2341.777344
778.949219	2391.127441
777.144531	2375.319580
775.339844	2355.362549
773.535156	2343.725586
771.730469	2354.251709
769.925781	2402.155029
768.119141	2286.699707
766.312500	2324.908447
764.505859	2338.195313
762.697266	2340.409912
760.890625	2371.664063
759.082031	2322.714355
757.273438	2294.520996
755.464844	2314.707764
753.654297	2369.424561
751.845703	2375.771240
750.035156	2452.542236
748.224609	2309.760010
746.412109	2404.453613
744.601563	2365.246338
742.789063	2361.927979
740.976563	2434.472656
739.164063	2435.275879
737.349609	2433.321289
735.537109	2414.827393
733.722656	2479.021973
731.908203	2522.520996
730.091797	2475.094238
728.277344	2517.196045
726.460938	2425.738037
724.644531	2414.152832
722.828125	2362.667480
721.009766	2341.472168
719.193359	2360.173096
717.375000	2315.611816
715.556641	2331.560059
713.736328	2324.135498
711.917969	2300.225098
710.097656	2254.345703
708.277344	2349.951904
706.457031	2312.320801
704.636719	2241.760254
702.814453	2307.106689
700.992188	2174.834473
699.169922	2259.370850
697.347656	2283.521484
695.523438	2244.587158
693.699219	2308.483643
691.875000	2253.115479
690.050781	2259.431396
688.226563	2289.031982
686.400391	2273.423584
684.574219	2294.791016
682.748047	2257.286133
680.921875	2256.750000
679.095703	2336.939453
677.267578	2272.092529
675.439453	2267.449951
673.611328	2320.234131
671.781250	2394.863770
669.953125	2264.466797
668.123047	2360.934570
666.292969	2326.224365
664.460938	2362.543213
662.630859	2342.866943
660.798828	2388.718994
658.966797	2388.150879
657.134766	2382.125488
655.302734	2378.830566
653.468750	2331.899170
651.634766	2329.980957
649.800781	2345.782715
647.966797	2354.763428
646.130859	2414.147705
644.294922	2417.658936
642.458984	2362.613770
640.623047	2289.896240
638.787109	2336.989014
636.949219	2321.463867
635.111328	2303.225098
633.273438	2323.078125
631.435547	2202.863037
629.595703	2202.337891
627.757813	2256.178955
625.917969	2289.611572
624.076172	2251.027832
622.236328	2235.551270
620.394531	2275.753906
618.552734	2262.993408
616.710938	2210.880127
614.869141	2171.003418
613.025391	2151.493896
611.183594	2193.023682
609.339844	2178.941650
607.494141	2178.421631
605.650391	2115.560059
603.804688	2146.218750
601.958984	2124.032715
600.113281	2147.902832
598.267578	2202.902832
596.419922	2133.341064
594.572266	2151.778320
592.724609	2118.792725
590.876953	2177.804443
589.027344	2159.703857
587.179688	2156.483887
585.330078	2165.430908
583.480469	2143.291504
581.628906	2069.822266
579.779297	2131.461670
577.927734	2122.850098
576.076172	2116.942383
574.222656	2127.234619
572.371094	2148.317383
570.517578	2114.075928
568.664063	2144.593018
566.810547	2141.383545
564.955078	2065.375000
563.101563	2089.142090
561.246094	2170.840820
559.390625	2057.157959
557.533203	2088.990967
555.677734	2049.441650
553.820313	2040.874146
551.962891	2086.146729
550.105469	2084.302246
548.246094	2101.291992
546.386719	2061.786133
544.527344	2072.049805
542.667969	2134.735840
540.808594	2111.377686
538.947266	2088.030518
537.085938	2048.574219
535.224609	2134.036377
533.363281	2150.980713
531.500000	2040.392090
529.638672	2104.321777
527.775391	2050.149414
525.910156	2103.314697
524.046875	2206.074219
522.181641	2275.265381
520.316406	2557.552979
518.451172	2476.533691
516.585938	2295.068359
514.718750	2177.984619
512.851563	2111.844727
510.984375	2119.372070
509.117188	2061.308594
507.250000	2026.021851
505.380859	1986.738403
503.511719	2046.452393
501.642578	2059.334473
499.771484	2026.755493
497.902344	2000.874878
496.031250	1997.723022
494.160156	2018.619751
492.287109	2046.184326
490.416016	1990.946533
488.542969	2023.844360
486.669922	2043.379517
484.796875	1958.825928
482.921875	2078.419434
481.046875	1967.223389
479.171875	2029.421387
477.296875	2006.272949
475.421875	2003.126709
473.544922	1994.652100
471.667969	1996.838379
469.791016	1933.765625
467.914063	1973.246460
466.035156	1952.806274
464.156250	1956.330811
462.277344	1919.937988
460.398438	1963.374390
458.519531	1954.924561
456.638672	1927.864868
454.757813	1930.061279
452.876953	2025.281372
450.994141	1955.708374
449.113281	1947.270020
447.230469	1964.066895
445.347656	1939.698486
443.462891	1960.470825
441.580078	1918.863525
439.695313	1986.065186
437.810547	1936.513184
435.925781	1970.526611
434.039063	1968.728516
432.152344	1984.161743
430.267578	1947.908325
428.378906	1979.236450
426.492188	1919.160767
424.603516	1967.694580
422.714844	1893.088013
420.826172	1921.751709
418.937500	1946.432007
417.046875	1886.435669
415.158203	1909.789795
413.265625	1939.743896
411.375000	1906.230591
409.484375	1970.533081
407.591797	1917.208740
405.699219	1941.848022
403.806641	1928.176025
401.912109	1878.860840
400.019531	1871.810425
