#Wave		#Intensity
1585.210938	25173.773438
1584.209961	25378.580078
1583.208984	25348.349609
1582.208008	25467.929688
1581.206055	25043.308594
1580.204102	25068.068359
1579.202148	25095.310547
1578.200195	25070.156250
1577.198242	25037.527344
1576.195313	25114.626953
1575.192383	25216.623047
1574.189453	24859.960938
1573.186523	24999.345703
1572.182617	24767.447266
1571.178711	24956.609375
1570.174805	24595.312500
1569.170898	24415.925781
1568.166992	24727.019531
1567.162109	24343.591797
1566.158203	24828.755859
1565.153320	24532.537109
1564.147461	24477.710938
1563.142578	24758.623047
1562.136719	24634.154297
1561.130859	25193.324219
1560.125000	25394.384766
1559.119141	25359.308594
1558.113281	26052.126953
1557.106445	26198.240234
1556.099609	26401.404297
1555.092773	26783.236328
1554.084961	26963.853516
1553.078125	27320.593750
1552.070313	27565.533203
1551.062500	28219.673828
1550.054688	28432.082031
1549.045898	28190.632813
1548.038086	28521.951172
1547.029297	28895.269531
1546.020508	28834.769531
1545.011719	28504.240234
1544.001953	29454.474609
1542.992188	29621.734375
1541.982422	29796.349609
1540.972656	29621.847656
1539.962891	29771.638672
1538.952148	29822.388672
1537.942383	29566.343750
1536.931641	30027.703125
1535.919922	29586.250000
1534.909180	29644.406250
1533.897461	29173.548828
1532.886719	28611.443359
1531.874023	28393.023438
1530.862305	28080.816406
1529.850586	27870.003906
1528.837891	27580.257813
1527.825195	27201.750000
1526.812500	26739.476563
1525.799805	26141.662109
1524.786133	26049.892578
1523.772461	26009.962891
1522.758789	25309.083984
1521.745117	25303.843750
1520.731445	25128.500000
1519.716797	25177.521484
1518.702148	25061.416016
1517.687500	24745.794922
1516.672852	24794.861328
1515.657227	24969.505859
1514.642578	24769.820313
1513.626953	24740.072266
1512.610352	24707.876953
1511.594727	24882.388672
1510.579102	25044.527344
1509.562500	24857.324219
1508.545898	24714.462891
1507.529297	24770.810547
1506.511719	24883.669922
1505.494141	25116.906250
1504.477539	25025.703125
1503.458984	24760.119141
1502.441406	24917.091797
1501.423828	24958.585938
1500.405273	25110.541016
1499.386719	25174.066406
1498.368164	25085.414063
1497.348633	25293.675781
1496.330078	25712.810547
1495.310547	25437.703125
1494.291016	25591.814453
1493.271484	25586.511719
1492.250977	25507.679688
1491.231445	25455.833984
1490.210938	25435.857422
1489.190430	25339.955078
1488.168945	25978.785156
1487.148438	25868.117188
1486.126953	25490.664063
1485.105469	25730.126953
1484.083984	25543.718750
1483.061523	25824.658203
1482.040039	25963.613281
1481.017578	26148.974609
1479.995117	26539.630859
1478.971680	26793.236328
1477.949219	27078.505859
1476.925781	26999.589844
1475.902344	27436.154297
1474.878906	27865.208984
1473.855469	28447.923828
1472.831055	29015.748047
1471.806641	29151.300781
1470.782227	30262.939453
1469.757813	30688.517578
1468.733398	31635.937500
1467.708008	32363.466797
1466.682617	33719.785156
1465.657227	35036.531250
1464.631836	36303.984375
1463.605469	37258.996094
1462.579102	38810.503906
1461.552734	39730.496094
1460.526367	40769.429688
1459.500000	41233.320313
1458.472656	41828.464844
1457.445313	42452.570313
1456.417969	41789.203125
1455.390625	41527.519531
1454.362305	40876.777344
1453.334961	39219.554688
1452.306641	38851.582031
1451.277344	37722.937500
1450.249023	36927.699219
1449.219727	35386.859375
1448.191406	34342.222656
1447.162109	33361.164063
1446.131836	32191.111328
1445.102539	31902.808594
1444.072266	30867.037109
1443.041992	30409.253906
1442.011719	30099.658203
1440.981445	29731.972656
1439.950195	29034.609375
1438.918945	28621.224609
1437.887695	28418.916016
1436.856445	28076.115234
1435.825195	27609.873047
1434.792969	27582.328125
1433.760742	27014.646484
1432.728516	27217.294922
1431.696289	26606.341797
1430.663086	26513.664063
1429.629883	26394.402344
1428.596680	26362.296875
1427.563477	25940.716797
1426.530273	25840.994141
1425.496094	25588.966797
1424.461914	25160.552734
1423.427734	25048.962891
1422.393555	25396.582031
1421.358398	24912.900391
1420.323242	24625.085938
1419.288086	24583.732422
1418.252930	24387.859375
1417.217773	24749.732422
1416.181641	24479.080078
1415.145508	24717.708984
1414.109375	25021.378906
1413.073242	24806.314453
1412.036133	25249.710938
1411.000000	25497.619141
1409.962891	25714.085938
1408.924805	26296.798828
1407.887695	26845.531250
1406.849609	27302.488281
1405.812500	27954.349609
1404.773438	29318.740234
1403.735352	30006.021484
1402.697266	30806.148438
1401.658203	31617.972656
1400.619141	31839.960938
1399.580078	32287.982422
1398.540039	32334.162109
1397.500977	32762.652344
1396.460938	32205.281250
1395.420898	32429.308594
1394.380859	32122.158203
1393.339844	31803.121094
1392.298828	31558.679688
1391.257813	31179.847656
1390.216797	31053.287109
1389.175781	31507.720703
1388.133789	31378.740234
1387.091797	32250.439453
1386.049805	32713.927734
1385.007813	33601.769531
1383.964844	34649.910156
1382.922852	35582.527344
1381.879883	36620.226563
1380.835938	37705.417969
1379.792969	38881.207031
1378.749023	39603.734375
1377.706055	40431.343750
1376.661133	40315.140625
1375.617188	41005.785156
1374.573242	40709.988281
1373.528320	40780.449219
1372.483398	40137.890625
1371.438477	39746.769531
1370.392578	39090.339844
1369.347656	38314.628906
1368.301758	38043.656250
1367.255859	37476.417969
1366.208984	36909.417969
1365.163086	36292.484375
1364.116211	35902.718750
1363.069336	35453.410156
1362.022461	35173.808594
1360.974609	34817.933594
1359.927734	34295.144531
1358.879883	34421.582031
1357.832031	34452.546875
1356.783203	34295.070313
1355.735352	34583.578125
1354.686523	34967.324219
1353.637695	35343.757813
1352.588867	35727.179688
1351.539063	36696.550781
1350.490234	37362.992188
1349.440430	38872.230469
1348.390625	39985.578125
1347.339844	41334.128906
1346.290039	42565.488281
1345.239258	43705.906250
1344.188477	44714.992188
1343.137695	46606.109375
1342.085938	47314.515625
1341.034180	48842.894531
1339.982422	49999.800781
1338.930664	50866.273438
1337.878906	51432.988281
1336.826172	51664.507813
1335.773438	52071.679688
1334.720703	51585.828125
1333.667969	51499.027344
1332.614258	51160.656250
1331.561523	50748.855469
1330.507813	49596.972656
1329.453125	49126.363281
1328.399414	48181.628906
1327.344727	47078.421875
1326.290039	45740.984375
1325.235352	44880.500000
1324.180664	44209.945313
1323.125000	43866.605469
1322.070313	43426.292969
1321.014648	42647.519531
1319.958008	42065.585938
1318.902344	41618.820313
1317.845703	41181.703125
1316.789063	40432.441406
1315.732422	39558.109375
1314.675781	38601.367188
1313.618164	37876.757813
1312.560547	37109.894531
1311.502930	36641.171875
1310.445313	35225.023438
1309.386719	34147.324219
1308.329102	33549.593750
1307.270508	32800.968750
1306.210938	32267.521484
1305.152344	31408.525391
1304.092773	30568.771484
1303.033203	30338.160156
1301.973633	29746.691406
1300.914063	29455.021484
1299.853516	28901.714844
1298.792969	28723.509766
1297.732422	28533.591797
1296.671875	28402.669922
1295.611328	28488.568359
1294.549805	28044.398438
1293.488281	27918.367188
1292.426758	28060.818359
1291.364258	27892.455078
1290.302734	27898.335938
1289.240234	27739.486328
1288.177734	28197.109375
1287.114258	27901.832031
1286.051758	27902.994141
1284.988281	28463.738281
1283.924805	28370.748047
1282.861328	28451.708984
1281.796875	29014.328125
1280.732422	29273.656250
1279.667969	29608.031250
1278.603516	29892.949219
1277.539063	30405.476563
1276.473633	31220.576172
1275.408203	31772.494141
1274.342773	32530.646484
1273.277344	32493.267578
1272.210938	32690.425781
1271.145508	32917.980469
1270.079102	32704.716797
1269.011719	31818.880859
1267.945313	31903.529297
1266.877930	31233.767578
1265.810547	30529.154297
1264.743164	29843.570313
1263.674805	29120.814453
1262.607422	28335.162109
1261.539063	27889.181641
1260.470703	27403.611328
1259.401367	26967.371094
1258.333008	26678.656250
1257.263672	26439.167969
1256.194336	25893.525391
1255.125000	25831.935547
1254.054688	25461.910156
1252.985352	25066.341797
1251.915039	25159.125000
1250.843750	24495.220703
1249.773438	24499.359375
1248.702148	24267.724609
1247.630859	24066.527344
1246.559570	24252.748047
1245.488281	24184.609375
1244.416016	23857.603516
1243.343750	23931.816406
1242.271484	24082.929688
1241.199219	23933.294922
1240.125977	24012.099609
1239.053711	23969.712891
1237.980469	24011.201172
1236.906250	24045.683594
1235.833008	23966.058594
1234.758789	24275.222656
1233.684570	24200.234375
1232.610352	24150.871094
1231.536133	24138.750000
1230.460938	24180.126953
1229.385742	24088.935547
1228.310547	24172.150391
1227.235352	24311.113281
1226.159180	24219.947266
1225.083008	24228.726563
1224.006836	24249.113281
1222.930664	23969.894531
1221.853516	24101.777344
1220.777344	23957.349609
1219.700195	24128.632813
1218.622070	24374.093750
1217.544922	24350.332031
1216.466797	24479.664063
1215.388672	24648.361328
1214.310547	24974.642578
1213.232422	25170.972656
1212.153320	25214.265625
1211.074219	25262.169922
1209.995117	25588.031250
1208.916016	25844.273438
1207.835938	26336.583984
1206.755859	25851.746094
1205.675781	26047.582031
1204.595703	26148.457031
1203.514648	26071.146484
1202.434570	26347.759766
1201.353516	26194.121094
1200.271484	26170.019531
1199.190430	26134.369141
1198.108398	25909.224609
1197.026367	25559.404297
1195.944336	25627.853516
1194.862305	25158.142578
1193.779297	25148.134766
1192.696289	24457.099609
1191.613281	24514.177734
1190.530273	24118.941406
1189.446289	23610.824219
1188.362305	23614.990234
1187.278320	23478.478516
1186.194336	22897.041016
1185.109375	22954.367188
1184.024414	22622.185547
1182.939453	22573.554688
1181.854492	22448.919922
1180.768555	22098.630859
1179.683594	21999.478516
1178.597656	22082.236328
1177.510742	21920.982422
1176.424805	21612.521484
1175.337891	21605.576172
1174.250977	21794.150391
1173.164063	21495.107422
1172.077148	21559.462891
1170.989258	21423.802734
1169.901367	21253.726563
1168.813477	21694.910156
1167.724609	21460.521484
1166.636719	21416.861328
1165.547852	21311.218750
1164.458984	21400.757813
1163.369141	21134.496094
1162.280273	21609.544922
1161.190430	21763.195313
1160.100586	21942.007813
1159.010742	22006.080078
1157.919922	21980.705078
1156.829102	22193.734375
1155.738281	21909.353516
1154.647461	22016.904297
1153.555664	22229.783203
1152.464844	22529.597656
1151.373047	22227.066406
1150.280273	22538.195313
1149.188477	22684.394531
1148.095703	22560.507813
1147.002930	22596.818359
1145.910156	22614.814453
1144.817383	22863.771484
1143.723633	23002.873047
1142.629883	22744.175781
1141.536133	22780.398438
1140.441406	22467.021484
1139.347656	22478.158203
1138.252930	22066.769531
1137.158203	22251.519531
1136.062500	22493.259766
1134.967773	22246.462891
1133.872070	21945.005859
1132.776367	22020.107422
1131.679688	21755.318359
1130.583984	22024.261719
1129.487305	22026.333984
1128.390625	21880.240234
1127.292969	21709.140625
1126.196289	21781.906250
1125.098633	21738.462891
1124.000977	22063.984375
1122.903320	21836.062500
1121.804688	21874.582031
1120.706055	21774.250000
1119.607422	21537.429688
1118.508789	21728.410156
1117.409180	21548.560547
1116.310547	21668.957031
1115.210938	21580.134766
1114.110352	21445.890625
1113.010742	21498.048828
1111.910156	21220.740234
1110.809570	21406.941406
1109.708984	21293.283203
1108.607422	21261.412109
1107.506836	21211.390625
1106.405273	20927.626953
1105.303711	21229.402344
1104.201172	20898.113281
1103.098633	20961.613281
1101.996094	20839.140625
1100.893555	20771.130859
1099.791016	20639.681641
1098.687500	20342.863281
1097.583984	20569.531250
1096.480469	20508.425781
1095.376953	20737.218750
1094.272461	20621.761719
1093.167969	20610.480469
1092.063477	20590.148438
1090.958008	20820.980469
1089.853516	20615.111328
1088.748047	20719.177734
1087.642578	20805.109375
1086.536133	21033.425781
1085.430664	21119.246094
1084.324219	21144.017578
1083.217773	21245.587891
1082.110352	21405.839844
1081.003906	21663.123047
1079.896484	21924.806641
1078.789063	22204.433594
1077.680664	22059.667969
1076.573242	22021.005859
1075.464844	22264.330078
1074.356445	21907.646484
1073.247070	21920.898438
1072.138672	22254.250000
1071.029297	21972.169922
1069.919922	21683.451172
1068.809570	21958.058594
1067.700195	21827.126953
1066.589844	21430.537109
1065.479492	21574.435547
1064.368164	21317.623047
1063.257813	21346.712891
1062.146484	20889.820313
1061.035156	20961.724609
1059.922852	20970.628906
1058.811523	20923.316406
1057.699219	20790.605469
1056.586914	20873.697266
1055.473633	20768.013672
1054.361328	20565.779297
1053.248047	20781.369141
1052.134766	20698.224609
1051.021484	20639.806641
1049.907227	20307.593750
1048.792969	20534.263672
1047.678711	20489.376953
1046.564453	20682.259766
1045.449219	20446.746094
1044.333984	20857.021484
1043.218750	20617.087891
1042.103516	20764.947266
1040.987305	20549.779297
1039.871094	20872.304688
1038.754883	20805.011719
1037.638672	21033.296875
1036.521484	20863.023438
1035.404297	21001.669922
1034.287109	21122.353516
1033.169922	21014.804688
1032.051758	21175.685547
1030.933594	21186.679688
1029.815430	21186.488281
1028.697266	21246.642578
1027.578125	21679.943359
1026.458984	21701.978516
1025.339844	21422.466797
1024.220703	21712.517578
1023.100586	21790.341797
1021.980469	21946.253906
1020.860352	21999.439453
1019.740234	21878.570313
1018.619141	22032.123047
1017.498047	22205.677734
1016.376953	22067.000000
1015.255859	21952.902344
1014.133789	22208.816406
1013.011719	21927.619141
1011.889648	22143.322266
1010.767578	22140.660156
1009.644531	22224.839844
1008.521484	22533.830078
1007.398438	22083.707031
1006.274414	21811.798828
1005.151367	21684.619141
1004.027344	21762.125000
1002.902344	21619.441406
1001.778320	21725.824219
1000.653320	21703.238281
999.528320	21227.312500
998.403320	21542.556641
997.278320	21537.791016
996.152344	21568.558594
995.026367	21486.074219
993.900391	21461.337891
992.773438	21547.580078
991.646484	21653.751953
990.519531	21946.214844
989.392578	21888.125000
988.265625	22297.925781
987.137695	22381.658203
986.009766	22336.802734
984.881836	22320.771484
983.752930	22548.441406
982.624023	22640.896484
981.495117	22348.000000
980.366211	22597.644531
979.236328	22833.896484
978.106445	22308.785156
976.976563	22531.716797
975.846680	21874.183594
974.715820	22119.224609
973.585938	21860.048828
972.454102	21837.507813
971.323242	21450.326172
970.191406	21480.912109
969.060547	21542.408203
967.927734	21281.429688
966.795898	21395.933594
965.663086	21280.798828
964.530273	21640.230469
963.397461	21531.707031
962.264648	21842.386719
961.130859	21927.955078
959.997070	22039.945313
958.863281	21847.648438
957.729492	21657.638672
956.594727	21833.511719
955.459961	21916.775391
954.325195	21634.359375
953.189453	21757.265625
952.053711	21622.517578
950.917969	21349.156250
949.782227	21018.697266
948.646484	21113.019531
947.509766	21040.121094
946.373047	21195.970703
945.235352	21015.343750
944.098633	21327.201172
942.960938	21096.074219
941.823242	20930.966797
940.685547	21110.822266
939.546875	21439.941406
938.408203	21494.439453
937.269531	21706.970703
936.129883	21763.576172
934.991211	21982.533203
933.851563	22260.623047
932.711914	22174.494141
931.571289	22397.591797
930.431641	22611.818359
929.291016	22819.371094
928.149414	22689.361328
927.008789	22896.798828
925.867188	22920.152344
924.725586	22794.578125
923.583984	22579.294922
922.441406	22230.580078
921.299805	21873.267578
920.157227	21866.181641
919.013672	21530.980469
917.871094	21088.767578
916.727539	20983.464844
915.583984	20792.955078
914.439453	20901.941406
913.295898	20512.697266
912.151367	20534.312500
911.006836	20433.611328
909.861328	20383.173828
908.716797	20291.281250
907.571289	20253.990234
906.424805	19998.509766
905.279297	20170.728516
904.132813	20002.619141
902.986328	20257.619141
901.839844	20198.568359
900.692383	20237.623047
899.545898	20045.673828
898.398438	20339.642578
897.250000	20385.169922
896.102539	20254.285156
894.954102	20582.837891
893.805664	20338.777344
892.656250	20057.828125
891.507813	20275.238281
890.358398	20233.699219
889.208984	20294.388672
888.058594	20255.035156
886.908203	20259.171875
885.758789	19993.824219
884.607422	20069.714844
883.457031	19976.134766
882.305664	19967.292969
881.154297	19836.861328
880.002930	19932.250000
878.850586	19947.291016
877.698242	20066.476563
876.545898	19680.152344
875.393555	19931.638672
874.240234	19747.173828
873.086914	19666.845703
871.933594	19480.351563
870.780273	19716.480469
869.625977	19603.714844
868.471680	19718.416016
867.317383	19393.484375
866.162109	19783.125000
865.007813	19715.890625
863.852539	19601.078125
862.696289	19427.902344
861.541016	19637.648438
860.384766	19628.888672
859.228516	19559.593750
858.072266	19434.128906
856.915039	19526.984375
855.757813	19267.626953
854.600586	19472.796875
853.442383	19250.279297
852.285156	19597.853516
851.126953	19386.197266
849.968750	19573.882813
848.809570	19683.808594
847.650391	19567.183594
846.491211	19472.177734
845.332031	19114.164063
844.171875	19441.806641
843.012695	19430.939453
841.851563	19452.396484
840.691406	19381.210938
839.530273	19424.203125
838.369141	19331.519531
837.208008	19329.292969
836.046875	19327.064453
834.884766	19370.023438
833.722656	19488.253906
832.560547	19277.361328
831.397461	19427.810547
830.234375	19507.246094
829.071289	19496.375000
827.908203	19251.283203
826.744141	19687.324219
825.580078	19553.986328
824.416016	19379.906250
823.251953	19502.171875
822.086914	19643.699219
820.921875	19692.886719
819.756836	19780.667969
818.590820	19634.609375
817.425781	19814.570313
816.259766	19550.652344
815.092773	19775.558594
813.926758	19591.054688
812.759766	19580.175781
811.592773	19858.466797
810.424805	19629.093750
809.257813	19641.757813
808.089844	19508.859375
806.920898	19410.259766
805.752930	19393.007813
804.583984	19303.031250
803.415039	19407.707031
802.246094	19604.271484
801.076172	19467.277344
799.906250	19443.611328
798.736328	19291.755859
797.566406	19263.865234
796.395508	19494.402344
795.224609	19684.263672
794.053711	19775.839844
792.881836	20198.175781
791.710938	20404.812500
790.538086	20722.281250
789.366211	20999.080078
788.194336	21030.542969
787.021484	21270.902344
785.848633	21206.375000
784.674805	21367.742188
783.500977	20936.802734
782.327148	20817.015625
781.153320	20348.068359
779.979492	20266.785156
778.804688	20600.572266
777.629883	20227.746094
776.454102	20255.039063
775.279297	19946.263672
774.103516	19846.019531
772.927734	20234.789063
771.750977	20191.908203
770.575195	20265.919922
769.398438	19965.986328
768.220703	20105.855469
767.043945	20273.267578
765.866211	20676.255859
764.688477	20750.064453
763.510742	20770.785156
762.332031	21067.300781
761.153320	21444.281250
759.974609	21492.392578
758.794922	22301.603516
757.616211	22843.369141
756.436523	23617.992188
755.255859	24432.513672
754.076172	26123.589844
752.895508	27769.417969
751.714844	29577.515625
750.533203	31670.542969
749.352539	34465.203125
748.170898	36981.414063
746.988281	39667.808594
745.806641	42490.433594
744.624023	44903.699219
743.441406	48243.820313
742.258789	52123.425781
741.075195	57002.746094
739.891602	62564.230469
738.708008	68385.031250
737.523438	74473.421875
736.339844	78294.000000
735.155273	79497.992188
733.969727	78224.335938
732.785156	74453.656250
731.599609	68409.101563
730.414063	61629.339844
729.227539	54140.175781
728.041992	46717.667969
726.855469	40470.085938
725.667969	35360.800781
724.481445	31599.648438
723.293945	28459.263672
722.106445	26650.751953
720.918945	25087.205078
719.730469	23534.894531
718.541992	22557.595703
717.353516	22072.890625
716.164063	21445.419922
714.975586	21150.388672
713.786133	20939.558594
712.595703	20615.355469
711.406250	20297.603516
710.215820	20177.423828
709.025391	19946.005859
707.833984	19884.740234
706.642578	19848.685547
705.451172	19793.759766
704.259766	19782.914063
703.068359	19805.630859
701.875977	19979.312500
700.683594	20110.982422
699.490234	20232.113281
698.297852	20797.421875
697.104492	20993.753906
695.910156	21667.539063
694.716797	22146.267578
693.522461	22662.458984
692.328125	22657.242188
691.132813	22930.335938
689.938477	23040.121094
688.743164	23379.929688
687.547852	23039.964844
686.351563	22856.955078
685.155273	22630.132813
683.958984	22307.289063
682.762695	21859.240234
681.565430	21574.316406
680.368164	20884.404297
679.170898	20952.662109
677.973633	20668.138672
676.775391	20604.945313
675.577148	20358.183594
674.378906	20628.818359
673.179688	20450.978516
671.980469	20291.982422
670.781250	20089.287109
669.581055	20186.763672
668.381836	20202.941406
667.181641	20283.681641
665.980469	20222.777344
664.780273	20263.914063
663.579102	20398.699219
662.377930	20572.958984
661.175781	20322.708984
659.973633	20800.591797
658.771484	21059.896484
657.569336	21252.548828
656.367188	21428.482422
655.164063	22279.728516
653.960938	22563.378906
652.756836	22853.128906
651.552734	23560.158203
650.348633	23689.671875
649.144531	24097.271484
647.939453	24421.671875
646.735352	24768.742188
645.529297	24721.535156
644.324219	24767.667969
643.118164	24757.798828
641.912109	25154.212891
640.706055	25034.417969
639.499023	24848.376953
638.292969	24237.775391
637.084961	24302.585938
635.877930	23963.621094
634.669922	23798.691406
633.461914	23548.986328
632.253906	23508.367188
631.044922	23184.373047
629.836914	23046.654297
628.626953	22805.619141
627.417969	22422.060547
626.208008	21984.945313
624.998047	21829.029297
623.788086	21472.812500
622.577148	21298.498047
621.366211	20888.882813
620.155273	20787.029297
618.944336	20330.251953
617.732422	19997.482422
616.520508	19681.369141
615.308594	19402.521484
614.095703	19651.638672
612.882813	19177.093750
611.669922	19038.695313
610.457031	18982.777344
609.243164	18895.982422
608.029297	19000.759766
606.815430	18749.279297
605.600586	18884.917969
604.385742	18571.837891
603.170898	18841.193359
601.955078	18686.660156
600.740234	18735.804688
599.524414	18747.914063
598.307617	18846.353516
597.091797	18918.029297
595.875000	18925.974609
594.658203	18804.498047
593.440430	18767.281250
592.222656	18908.714844
591.004883	18766.794922
589.787109	18924.580078
588.568359	18994.062500
587.349609	18969.146484
586.130859	18880.662109
584.912109	18872.185547
583.692383	18986.707031
582.472656	18980.255859
581.251953	19250.423828
580.032227	19352.484375
578.811523	19462.689453
577.589844	19677.267578
576.369141	19701.363281
575.147461	19870.759766
573.925781	20246.736328
572.703125	20413.878906
571.481445	20918.402344
570.258789	21115.980469
569.035156	21417.720703
567.812500	21568.082031
566.588867	21867.533203
565.365234	22093.300781
564.140625	22061.625000
562.916992	22105.513672
561.692383	22190.207031
560.466797	21944.228516
559.242188	21631.025391
558.016602	21779.005859
556.791016	21339.535156
555.564453	21132.716797
554.337891	20628.363281
553.111328	20515.556641
551.884766	20278.505859
550.657227	20082.306641
549.429688	19578.658203
548.202148	19498.775391
546.974609	19559.394531
545.746094	19467.337891
544.517578	19432.298828
543.288086	19399.306641
542.058594	19311.416016
540.829102	19241.865234
539.599609	19452.888672
538.370117	19019.529297
537.139648	19236.597656
535.909180	19069.613281
534.677734	19239.853516
533.446289	19107.462891
532.214844	19001.523438
530.983398	18893.601563
529.750977	18590.933594
528.519531	18801.656250
527.286133	18862.193359
526.053711	18679.375000
524.820313	18792.617188
523.586914	18664.621094
522.353516	18769.708984
521.119141	18617.464844
519.884766	18801.500000
518.650391	18687.791016
517.415039	18436.470703
516.179688	18725.664063
514.944336	18498.732422
513.708984	18409.470703
