#Wave		#Intensity
1585.210938	25970.521484
1584.209961	26122.878906
1583.208984	25842.781250
1582.208008	26039.652344
1581.206055	26051.730469
1580.204102	26053.820313
1579.202148	25788.937500
1578.200195	25556.591797
1577.198242	25823.146484
1576.195313	25850.212891
1575.192383	25436.007813
1574.189453	25505.513672
1573.186523	25467.833984
1572.182617	25395.291016
1571.178711	25118.519531
1570.174805	25300.097656
1569.170898	25406.904297
1568.166992	25371.769531
1567.162109	25428.736328
1566.158203	25326.425781
1565.153320	25316.205078
1564.147461	25256.240234
1563.142578	25228.628906
1562.136719	25496.896484
1561.130859	25491.617188
1560.125000	25459.001953
1559.119141	25500.939453
1558.113281	25811.156250
1557.106445	25999.542969
1556.099609	26145.634766
1555.092773	26584.621094
1554.084961	26549.332031
1553.078125	26826.744141
1552.070313	27022.162109
1551.062500	27825.253906
1550.054688	27596.281250
1549.045898	28426.195313
1548.038086	28730.195313
1547.029297	29415.771484
1546.020508	29880.513672
1545.011719	29866.894531
1544.001953	30858.957031
1542.992188	31979.386719
1541.982422	31861.345703
1540.972656	32525.609375
1539.962891	32964.375000
1538.952148	33568.746094
1537.942383	33054.632813
1536.931641	33737.882813
1535.919922	33256.093750
1534.909180	33355.519531
1533.897461	33247.265625
1532.886719	32397.634766
1531.874023	32020.292969
1530.862305	31640.634766
1529.850586	30865.955078
1528.837891	30622.505859
1527.825195	29613.812500
1526.812500	29400.341797
1525.799805	28777.298828
1524.786133	28201.390625
1523.772461	27721.923828
1522.758789	27161.269531
1521.745117	27064.410156
1520.731445	26982.382813
1519.716797	26678.560547
1518.702148	26596.642578
1517.687500	26315.197266
1516.672852	26477.246094
1515.657227	26351.089844
1514.642578	26271.767578
1513.626953	26143.242188
1512.610352	26204.279297
1511.594727	25992.154297
1510.579102	26063.037109
1509.562500	26074.857422
1508.545898	25830.917969
1507.529297	26118.146484
1506.511719	25987.371094
1505.494141	26126.988281
1504.477539	26119.119141
1503.458984	26128.447266
1502.441406	26302.330078
1501.423828	26233.037109
1500.405273	26065.566406
1499.386719	26101.894531
1498.368164	26091.578125
1497.348633	25963.494141
1496.330078	26291.728516
1495.310547	26065.552734
1494.291016	26175.398438
1493.271484	26118.492188
1492.250977	25997.880859
1491.231445	26453.189453
1490.210938	26170.857422
1489.190430	26368.740234
1488.168945	26243.275391
1487.148438	26695.701172
1486.126953	26580.009766
1485.105469	26288.146484
1484.083984	26632.611328
1483.061523	26793.449219
1482.040039	26924.867188
1481.017578	27017.101563
1479.995117	26965.046875
1478.971680	27057.232422
1477.949219	27479.306641
1476.925781	27781.476563
1475.902344	27890.533203
1474.878906	28492.904297
1473.855469	28587.111328
1472.831055	28903.445313
1471.806641	29514.990234
1470.782227	29960.333984
1469.757813	30422.572266
1468.733398	30974.873047
1467.708008	31400.123047
1466.682617	32122.671875
1465.657227	32723.027344
1464.631836	33688.730469
1463.605469	34344.554688
1462.579102	35053.707031
1461.552734	36101.136719
1460.526367	37211.449219
1459.500000	37590.859375
1458.472656	38033.402344
1457.445313	38799.453125
1456.417969	39450.820313
1455.390625	39284.500000
1454.362305	39378.500000
1453.334961	39134.441406
1452.306641	38647.355469
1451.277344	38527.515625
1450.249023	37700.519531
1449.219727	37085.253906
1448.191406	35692.882813
1447.162109	35041.855469
1446.131836	33786.460938
1445.102539	33228.347656
1444.072266	32570.949219
1443.041992	31593.494141
1442.011719	31312.767578
1440.981445	30561.566406
1439.950195	29594.832031
1438.918945	29591.107422
1437.887695	28957.087891
1436.856445	29062.560547
1435.825195	28848.125000
1434.792969	28982.644531
1433.760742	28165.185547
1432.728516	28449.931641
1431.696289	28000.941406
1430.663086	28106.468750
1429.629883	27718.236328
1428.596680	27700.375000
1427.563477	27334.156250
1426.530273	27347.820313
1425.496094	27018.097656
1424.461914	26516.857422
1423.427734	26743.388672
1422.393555	26370.492188
1421.358398	26070.234375
1420.323242	26059.978516
1419.288086	26189.802734
1418.252930	25925.984375
1417.217773	25881.960938
1416.181641	25738.996094
1415.145508	25680.548828
1414.109375	25829.609375
1413.073242	26171.578125
1412.036133	25944.257813
1411.000000	26112.455078
1409.962891	26266.117188
1408.924805	26287.158203
1407.887695	26763.605469
1406.849609	27083.259766
1405.812500	27414.822266
1404.773438	27707.714844
1403.735352	27971.591797
1402.697266	28406.261719
1401.658203	28770.958984
1400.619141	28911.734375
1399.580078	29114.994141
1398.540039	28976.642578
1397.500977	29247.128906
1396.460938	29366.042969
1395.420898	29585.855469
1394.380859	29421.080078
1393.339844	29299.619141
1392.298828	28899.564453
1391.257813	28982.392578
1390.216797	28923.521484
1389.175781	28891.078125
1388.133789	28832.248047
1387.091797	29006.197266
1386.049805	28825.009766
1385.007813	29039.662109
1383.964844	29323.767578
1382.922852	29514.246094
1381.879883	29486.507813
1380.835938	29691.248047
1379.792969	29943.824219
1378.749023	30426.267578
1377.706055	30647.443359
1376.661133	30463.839844
1375.617188	30632.242188
1374.573242	30996.845703
1373.528320	31054.978516
1372.483398	31046.095703
1371.438477	31474.962891
1370.392578	31408.591797
1369.347656	31222.693359
1368.301758	31469.566406
1367.255859	31271.777344
1366.208984	31874.578125
1365.163086	31922.859375
1364.116211	31758.535156
1363.069336	31766.216797
1362.022461	32282.449219
1360.974609	31834.083984
1359.927734	32495.662109
1358.879883	32414.890625
1357.832031	32498.755859
1356.783203	32475.255859
1355.735352	32704.527344
1354.686523	32971.847656
1353.637695	33579.906250
1352.588867	33799.265625
1351.539063	34375.914063
1350.490234	35426.359375
1349.440430	35518.960938
1348.390625	36273.464844
1347.339844	37160.960938
1346.290039	38138.527344
1345.239258	38239.992188
1344.188477	38724.445313
1343.137695	39613.050781
1342.085938	40929.339844
1341.034180	41189.421875
1339.982422	41411.359375
1338.930664	42030.089844
1337.878906	42230.367188
1336.826172	42860.539063
1335.773438	42820.667969
1334.720703	42671.578125
1333.667969	42513.046875
1332.614258	42658.406250
1331.561523	42516.554688
1330.507813	41933.453125
1329.453125	41583.058594
1328.399414	40948.218750
1327.344727	40356.320313
1326.290039	40101.296875
1325.235352	39609.363281
1324.180664	38911.480469
1323.125000	39083.351563
1322.070313	38563.511719
1321.014648	38335.167969
1319.958008	38355.519531
1318.902344	38238.562500
1317.845703	37759.558594
1316.789063	37488.972656
1315.732422	37102.585938
1314.675781	36292.996094
1313.618164	35663.457031
1312.560547	35272.957031
1311.502930	34558.804688
1310.445313	33622.808594
1309.386719	32564.351563
1308.329102	32047.269531
1307.270508	31683.908203
1306.210938	30742.216797
1305.152344	30679.083984
1304.092773	29733.275391
1303.033203	29684.533203
1301.973633	29227.675781
1300.914063	28983.289063
1299.853516	28861.626953
1298.792969	28006.777344
1297.732422	28297.875000
1296.671875	28159.931641
1295.611328	28057.386719
1294.549805	28105.646484
1293.488281	27963.115234
1292.426758	27837.123047
1291.364258	27960.726563
1290.302734	27973.654297
1289.240234	27953.626953
1288.177734	27618.345703
1287.114258	27706.599609
1286.051758	27373.859375
1284.988281	27911.205078
1283.924805	27599.714844
1282.861328	27563.328125
1281.796875	27482.310547
1280.732422	27617.453125
1279.667969	27484.783203
1278.603516	27662.132813
1277.539063	27616.371094
1276.473633	27413.361328
1275.408203	27661.007813
1274.342773	27807.660156
1273.277344	27593.003906
1272.210938	28086.701172
1271.145508	28054.964844
1270.079102	27903.679688
1269.011719	27972.771484
1267.945313	28102.755859
1266.877930	27876.582031
1265.810547	27212.498047
1264.743164	27197.365234
1263.674805	26854.457031
1262.607422	26933.033203
1261.539063	26627.767578
1260.470703	26266.474609
1259.401367	25949.777344
1258.333008	25881.126953
1257.263672	25826.533203
1256.194336	25332.453125
1255.125000	25490.689453
1254.054688	24870.697266
1252.985352	24895.791016
1251.915039	24766.707031
1250.843750	24490.550781
1249.773438	24312.572266
1248.702148	24013.283203
1247.630859	23882.154297
1246.559570	23884.080078
1245.488281	23720.373047
1244.416016	23761.978516
1243.343750	23332.529297
1242.271484	23143.392578
1241.199219	23301.630859
1240.125977	23184.818359
1239.053711	23182.216797
1237.980469	23254.154297
1236.906250	23270.167969
1235.833008	23234.947266
1234.758789	23111.279297
1233.684570	22938.787109
1232.610352	23448.148438
1231.536133	23131.416016
1230.460938	22886.921875
1229.385742	22884.373047
1228.310547	23325.880859
1227.235352	23121.009766
1226.159180	23155.589844
1225.083008	23229.650391
1224.006836	23189.855469
1222.930664	23386.962891
1221.853516	23486.462891
1220.777344	23537.167969
1219.700195	23564.640625
1218.622070	23889.117188
1217.544922	23814.421875
1216.466797	23677.128906
1215.388672	24314.429688
1214.310547	24260.550781
1213.232422	24665.654297
1212.153320	24947.753906
1211.074219	24912.304688
1209.995117	25310.052734
1208.916016	25112.416016
1207.835938	25556.257813
1206.755859	25145.667969
1205.675781	25408.775391
1204.595703	25424.167969
1203.514648	25154.988281
1202.434570	25133.417969
1201.353516	25005.476563
1200.271484	24634.822266
1199.190430	24830.656250
1198.108398	24797.607422
1197.026367	24540.449219
1195.944336	24528.263672
1194.862305	23871.712891
1193.779297	24049.015625
1192.696289	23748.365234
1191.613281	23600.175781
1190.530273	23195.904297
1189.446289	23091.728516
1188.362305	22909.169922
1187.278320	22687.484375
1186.194336	22461.279297
1185.109375	22539.445313
1184.024414	22225.791016
1182.939453	22163.419922
1181.854492	21990.498047
1180.768555	21815.345703
1179.683594	21621.845703
1178.597656	22135.187500
1177.510742	21812.804688
1176.424805	21676.953125
1175.337891	21596.375000
1174.250977	21745.845703
1173.164063	21506.605469
1172.077148	21895.142578
1170.989258	21623.789063
1169.901367	21589.261719
1168.813477	21393.910156
1167.724609	21575.382813
1166.636719	21765.960938
1165.547852	21494.917969
1164.458984	21896.634766
1163.369141	21965.369141
1162.280273	21738.050781
1161.190430	22263.339844
1160.100586	22295.246094
1159.010742	22343.189453
1157.919922	22553.894531
1156.829102	22480.267578
1155.738281	22734.392578
1154.647461	22809.687500
1153.555664	22708.556641
1152.464844	22758.626953
1151.373047	22694.183594
1150.280273	22659.527344
1149.188477	22590.552734
1148.095703	22414.054688
1147.002930	22299.402344
1145.910156	21999.523438
1144.817383	21921.595703
1143.723633	21793.398438
1142.629883	21836.695313
1141.536133	21402.332031
1140.441406	21923.224609
1139.347656	21651.216797
1138.252930	21792.705078
1137.158203	21452.337891
1136.062500	21554.996094
1134.967773	21566.310547
1133.872070	21267.281250
1132.776367	21328.841797
1131.679688	21331.070313
1130.583984	21522.568359
1129.487305	21360.595703
1128.390625	21410.677734
1127.292969	21239.679688
1126.196289	21483.429688
1125.098633	21241.871094
1124.000977	21480.957031
1122.903320	21460.363281
1121.804688	21460.265625
1120.706055	21309.951172
1119.607422	21712.642578
1118.508789	21323.460938
1117.409180	21125.503906
1116.310547	21537.064453
1115.210938	21527.845703
1114.110352	21232.228516
1113.010742	21100.357422
1111.910156	21188.931641
1110.809570	21241.119141
1109.708984	21238.777344
1108.607422	21061.603516
1107.506836	20698.359375
1106.405273	20775.566406
1105.303711	20852.738281
1104.201172	20768.804688
1103.098633	20757.486328
1101.996094	20616.917969
1100.893555	20648.707031
1099.791016	20440.220703
1098.687500	20465.234375
1097.583984	20839.138672
1096.480469	20737.203125
1095.376953	20744.011719
1094.272461	20990.814453
1093.167969	20836.843750
1092.063477	20660.306641
1090.958008	20863.970703
1089.853516	21099.214844
1088.748047	21151.158203
1087.642578	21386.232422
1086.536133	21684.501953
1085.430664	21892.232422
1084.324219	22260.308594
1083.217773	22210.269531
1082.110352	22722.669922
1081.003906	22778.683594
1079.896484	23157.527344
1078.789063	22831.945313
1077.680664	23494.957031
1076.573242	23562.025391
1075.464844	23791.478516
1074.356445	23513.394531
1073.247070	23379.736328
1072.138672	23518.900391
1071.029297	23301.904297
1069.919922	22947.548828
1068.809570	22649.667969
1067.700195	22689.761719
1066.589844	22351.529297
1065.479492	22200.304688
1064.368164	21900.587891
1063.257813	21733.769531
1062.146484	21303.792969
1061.035156	21636.531250
1059.922852	21184.269531
1058.811523	21204.363281
1057.699219	20988.417969
1056.586914	20759.082031
1055.473633	21089.318359
1054.361328	20752.230469
1053.248047	20610.681641
1052.134766	20215.458984
1051.021484	20291.843750
1049.907227	20058.460938
1048.792969	20525.289063
1047.678711	20256.058594
1046.564453	20303.201172
1045.449219	20381.714844
1044.333984	20372.757813
1043.218750	20094.824219
1042.103516	20274.171875
1040.987305	20236.111328
1039.871094	20227.185547
1038.754883	20108.525391
1037.638672	20213.818359
1036.521484	20144.457031
1035.404297	20366.068359
1034.287109	20310.126953
1033.169922	20189.333984
1032.051758	20236.333984
1030.933594	20336.976563
1029.815430	20265.433594
1028.697266	20296.734375
1027.578125	20198.414063
1026.458984	20303.437500
1025.339844	20229.724609
1024.220703	20292.261719
1023.100586	20399.421875
1021.980469	20361.445313
1020.860352	20539.951172
1019.740234	20749.613281
1018.619141	20586.662109
1017.498047	20383.638672
1016.376953	20350.158203
1015.255859	20372.417969
1014.133789	20425.869141
1013.011719	20403.537109
1011.889648	20312.154297
1010.767578	20249.761719
1009.644531	20374.441406
1008.521484	20323.191406
1007.398438	20465.599609
1006.274414	20044.958984
1005.151367	20412.062500
1004.027344	20607.734375
1002.902344	20227.363281
1001.778320	20538.597656
1000.653320	20625.189453
999.528320	20469.511719
998.403320	20724.935547
997.278320	20704.800781
996.152344	20569.191406
995.026367	20673.435547
993.900391	20713.255859
992.773438	20872.900391
991.646484	20888.248047
990.519531	21203.066406
989.392578	21329.222656
988.265625	21453.105469
987.137695	21561.412109
986.009766	21643.072266
984.881836	21523.046875
983.752930	21737.601563
982.624023	21418.261719
981.495117	21448.943359
980.366211	21156.373047
979.236328	21419.505859
978.106445	21000.929688
976.976563	21427.699219
975.846680	21148.656250
974.715820	20949.351563
973.585938	20725.810547
972.454102	20814.048828
971.323242	20667.982422
970.191406	20581.638672
969.060547	20484.285156
967.927734	20411.267578
966.795898	20188.134766
965.663086	20532.437500
964.530273	20684.572266
963.397461	20540.957031
962.264648	20573.890625
961.130859	20684.003906
959.997070	20811.707031
958.863281	20990.056641
957.729492	20934.687500
956.594727	20806.623047
955.459961	20987.052734
954.325195	20777.531250
953.189453	20579.113281
952.053711	20708.828125
950.917969	20451.078125
949.782227	20371.697266
948.646484	20235.142578
947.509766	20034.857422
946.373047	20199.728516
945.235352	19957.761719
944.098633	20111.580078
942.960938	20357.634766
941.823242	19882.880859
940.685547	20366.121094
939.546875	20295.687500
938.408203	20016.681641
937.269531	20435.902344
936.129883	20552.050781
934.991211	20692.283203
933.851563	20281.802734
932.711914	20742.253906
931.571289	20746.388672
930.431641	20980.716797
929.291016	20958.490234
928.149414	21083.091797
927.008789	20966.640625
925.867188	20981.664063
924.725586	21266.035156
923.583984	21044.523438
922.441406	20880.023438
921.299805	20722.158203
920.157227	20700.013672
919.013672	20273.203125
917.871094	20592.330078
916.727539	20336.273438
915.583984	20202.744141
914.439453	19839.796875
913.295898	19994.853516
912.151367	19944.496094
911.006836	19734.726563
909.861328	19957.386719
908.716797	19356.943359
907.571289	19527.203125
906.424805	19684.294922
905.279297	19620.974609
904.132813	19729.986328
902.986328	19452.982422
901.839844	19703.685547
900.692383	19583.742188
899.545898	19494.357422
898.398438	19527.015625
897.250000	19444.214844
896.102539	19655.431641
894.954102	19470.310547
893.805664	19633.537109
892.656250	19820.625000
891.507813	19522.451172
890.358398	19507.183594
889.208984	19650.675781
888.058594	19554.937500
886.908203	19500.541016
885.758789	19435.300781
884.607422	19537.390625
883.457031	19400.484375
882.305664	19383.083984
881.154297	19385.234375
880.002930	19302.718750
878.850586	19185.513672
877.698242	19144.302734
876.545898	19079.248047
875.393555	19283.156250
874.240234	19233.273438
873.086914	19124.878906
871.933594	19088.056641
870.780273	18958.072266
869.625977	19094.611328
868.471680	18893.205078
867.317383	18960.400391
866.162109	19042.718750
865.007813	18886.910156
863.852539	18735.496094
862.696289	19090.400391
861.541016	18995.244141
860.384766	18993.117188
859.228516	18839.648438
858.072266	18872.136719
856.915039	18826.812500
855.757813	19012.685547
854.600586	18634.699219
853.442383	18773.017578
852.285156	18876.724609
851.126953	18786.113281
849.968750	18982.566406
848.809570	19006.320313
847.650391	19032.220703
846.491211	18896.359375
845.332031	18450.074219
844.171875	18661.462891
843.012695	18698.185547
841.851563	18739.199219
840.691406	18715.568359
839.530273	18694.099609
838.369141	19010.691406
837.208008	18705.003906
836.046875	18750.265625
834.884766	18903.093750
833.722656	18879.447266
832.560547	18954.746094
831.397461	19085.916016
830.234375	18694.623047
829.071289	18862.328125
827.908203	18714.078125
826.744141	18630.343750
825.580078	18954.736328
824.416016	18903.193359
823.251953	18963.308594
822.086914	18688.558594
820.921875	18752.984375
819.756836	18780.906250
818.590820	18727.308594
817.425781	18830.275391
816.259766	18851.724609
815.092773	18877.449219
813.926758	18828.156250
812.759766	18811.023438
811.592773	18682.509766
810.424805	18817.460938
809.257813	18710.414063
808.089844	18909.509766
806.920898	18704.042969
805.752930	18676.253906
804.583984	18766.123047
803.415039	18672.031250
802.246094	18661.367188
801.076172	18975.625000
799.906250	18736.220703
798.736328	18597.347656
797.566406	18766.140625
796.395508	18892.142578
795.224609	18843.000000
794.053711	19195.203125
792.881836	19116.130859
791.710938	19032.828125
790.538086	19337.808594
789.366211	19727.960938
788.194336	20077.419922
787.021484	20445.902344
785.848633	20309.099609
784.674805	20072.210938
783.500977	20191.191406
782.327148	19979.990234
781.153320	20026.537109
779.979492	19489.750000
778.804688	19576.822266
777.629883	19791.527344
776.454102	19331.744141
775.279297	19401.773438
774.103516	19110.273438
772.927734	19414.171875
771.750977	19377.855469
770.575195	19354.304688
769.398438	19632.439453
768.220703	19712.914063
767.043945	19857.056641
765.866211	20226.171875
764.688477	20376.496094
763.510742	20681.658203
762.332031	20778.765625
761.153320	21300.046875
759.974609	21732.021484
758.794922	22500.896484
757.616211	23385.998047
756.436523	24618.234375
755.255859	26352.029297
754.076172	28190.939453
752.895508	30859.144531
751.714844	33881.816406
750.533203	36676.613281
749.352539	40295.464844
748.170898	43641.835938
746.988281	46271.707031
745.806641	48320.917969
744.624023	49083.687500
743.441406	49066.101563
742.258789	48488.480469
741.075195	46899.066406
739.891602	46060.269531
738.708008	45120.480469
737.523438	44430.265625
736.339844	44358.859375
735.155273	44101.769531
733.969727	43441.789063
732.785156	42940.320313
731.599609	41403.566406
730.414063	39428.945313
729.227539	36867.093750
728.041992	33895.441406
726.855469	31336.029297
725.667969	28824.130859
724.481445	26721.962891
723.293945	25410.357422
722.106445	24343.544922
720.918945	23222.501953
719.730469	22444.947266
718.541992	21793.966797
717.353516	21197.966797
716.164063	20902.923828
714.975586	20490.292969
713.786133	20136.697266
712.595703	19900.931641
711.406250	20089.628906
710.215820	19795.171875
709.025391	19589.041016
707.833984	19664.310547
706.642578	19668.185547
705.451172	19369.892578
704.259766	19583.617188
703.068359	19744.806641
701.875977	19532.671875
700.683594	19643.480469
699.490234	20364.156250
698.297852	20931.531250
697.104492	21419.033203
695.910156	22103.193359
694.716797	22634.171875
693.522461	23286.330078
692.328125	23557.251953
691.132813	23989.173828
689.938477	23866.494141
688.743164	23398.753906
687.547852	22862.220703
686.351563	22560.083984
685.155273	22082.511719
683.958984	21695.013672
682.762695	21336.941406
681.565430	20669.902344
680.368164	20840.550781
679.170898	20714.658203
677.973633	20492.808594
676.775391	20408.787109
675.577148	20374.873047
674.378906	20351.404297
673.179688	20217.419922
671.980469	20246.115234
670.781250	20016.333984
669.581055	19753.312500
668.381836	19757.089844
667.181641	19710.873047
665.980469	19616.781250
664.780273	19164.628906
663.579102	19145.636719
662.377930	19220.296875
661.175781	19205.458984
659.973633	19121.984375
658.771484	19333.845703
657.569336	19217.111328
656.367188	19383.121094
655.164063	19382.802734
653.960938	19592.326172
652.756836	19747.744141
651.552734	20060.919922
650.348633	20467.376953
649.144531	20580.966797
647.939453	20960.136719
646.735352	20988.490234
645.529297	21193.146484
644.324219	21327.195313
643.118164	21241.406250
641.912109	21201.259766
640.706055	20781.882813
639.499023	20975.982422
638.292969	20631.419922
637.084961	20531.386719
635.877930	20085.630859
634.669922	19840.867188
633.461914	19438.933594
632.253906	19666.171875
631.044922	19283.078125
629.836914	19228.984375
628.626953	19162.507813
627.417969	19296.574219
626.208008	19213.578125
624.998047	19095.494141
623.788086	19210.886719
622.577148	18923.507813
621.366211	18981.070313
620.155273	18956.037109
618.944336	18712.251953
617.732422	18757.439453
616.520508	18590.136719
615.308594	18478.591797
614.095703	18581.531250
612.882813	18389.644531
611.669922	18362.716797
610.457031	18319.316406
609.243164	18201.777344
608.029297	18430.285156
606.815430	18251.001953
605.600586	18238.541016
604.385742	18156.111328
603.170898	18217.748047
601.955078	18184.728516
600.740234	18022.158203
599.524414	18307.898438
598.307617	18315.992188
597.091797	18153.498047
595.875000	18365.039063
594.658203	18245.746094
593.440430	18249.732422
592.222656	18251.664063
591.004883	18331.599609
589.787109	18405.339844
588.568359	18171.265625
587.349609	18111.667969
586.130859	18173.097656
584.912109	17908.480469
583.692383	17769.033203
582.472656	17633.746094
581.251953	17713.667969
580.032227	17879.589844
578.811523	17904.117188
577.589844	17983.916016
576.369141	18327.753906
575.147461	18550.681641
573.925781	18675.287109
572.703125	19082.138672
571.481445	19431.535156
570.258789	19729.648438
569.035156	20191.164063
567.812500	20450.130859
566.588867	20939.869141
565.365234	21159.722656
564.140625	21395.814453
562.916992	21458.232422
561.692383	21873.787109
560.466797	22009.537109
559.242188	21818.748047
558.016602	21297.566406
556.791016	21194.728516
555.564453	20616.837891
554.337891	19947.478516
553.111328	19802.220703
551.884766	19086.492188
550.657227	18656.296875
549.429688	18220.189453
548.202148	18329.988281
546.974609	18175.089844
545.746094	18107.779297
544.517578	17790.218750
543.288086	17877.632813
542.058594	18091.105469
540.829102	18001.505859
539.599609	18060.345703
538.370117	17889.494141
537.139648	17787.808594
535.909180	18088.402344
534.677734	18007.025391
533.446289	17948.019531
532.214844	17757.085938
530.983398	17663.662109
529.750977	17608.832031
528.519531	17610.830078
527.286133	17704.095703
526.053711	17476.935547
524.820313	17428.277344
523.586914	17369.507813
522.353516	17507.316406
521.119141	17250.021484
519.884766	17487.037109
518.650391	17523.474609
517.415039	17300.767578
516.179688	17262.341797
514.944336	17201.675781
513.708984	17488.996094
