#Wave		#Intensity
1585.210938	3726.487549
1584.209961	3644.065430
1583.208984	3610.847656
1582.208008	3560.167236
1581.206055	3744.140625
1580.204102	3793.276611
1579.202148	3672.727783
1578.200195	3684.439697
1577.198242	3716.098877
1576.195313	3687.900391
1575.192383	3841.702148
1574.189453	3723.760010
1573.186523	3673.149414
1572.182617	3824.366943
1571.178711	3684.082764
1570.174805	3695.771729
1569.170898	3747.294189
1568.166992	3609.602295
1567.162109	3586.454834
1566.158203	3809.663574
1565.153320	3579.993896
1564.147461	3676.258057
1563.142578	3561.103760
1562.136719	3677.221924
1561.130859	3514.885254
1560.125000	3583.744629
1559.119141	3535.792480
1558.113281	3664.240234
1557.106445	3673.416504
1556.099609	3682.588623
1555.092773	3592.449219
1554.084961	3656.241943
1553.078125	3593.443604
1552.070313	3557.963379
1551.062500	3621.723145
1550.054688	3638.334229
1549.045898	3563.192627
1548.038086	3520.310547
1547.029297	3551.803223
1546.020508	3506.462646
1545.011719	3607.316162
1544.001953	3443.084717
1542.992188	3576.104248
1541.982422	3501.083496
1540.972656	3527.589111
1539.962891	3427.859375
1538.952148	3513.756348
1537.942383	3483.341309
1536.931641	3457.885498
1535.919922	3454.696533
1534.909180	3453.981445
1533.897461	3465.625732
1532.886719	3425.365723
1531.874023	3432.069336
1530.862305	3507.940430
1529.850586	3423.238525
1528.837891	3383.020020
1527.825195	3525.512695
1526.812500	3507.504395
1525.799805	3558.602539
1524.786133	3555.398438
1523.772461	3537.394531
1522.758789	3465.139648
1521.745117	3607.437500
1520.731445	3505.614258
1519.716797	3551.718750
1518.702148	3531.269287
1517.687500	3550.248047
1516.672852	3606.166992
1515.657227	3497.060547
1514.642578	3757.330566
1513.626953	3586.695068
1512.610352	3588.413574
1511.594727	3612.277100
1510.579102	3599.228271
1509.562500	3647.675781
1508.545898	3654.297852
1507.529297	3582.240234
1506.511719	3485.631104
1505.494141	3519.315918
1504.477539	3614.414307
1503.458984	3616.122314
1502.441406	3531.865723
1501.423828	3580.245850
1500.405273	3545.133057
1499.386719	3514.943848
1498.368164	3519.123779
1497.348633	3628.804443
1496.330078	3603.522217
1495.310547	3595.417969
1494.291016	3521.112061
1493.271484	3603.734131
1492.250977	3576.026123
1491.231445	3526.274902
1490.210938	3574.544189
1489.190430	3603.197266
1488.168945	3536.327881
1487.148438	3560.079834
1486.126953	3564.237793
1485.105469	3563.499023
1484.083984	3631.274902
1483.061523	3669.665283
1482.040039	3686.026123
1481.017578	3743.952148
1479.995117	3836.083008
1478.971680	3803.510254
1477.949219	3819.828857
1476.925781	3777.499023
1475.902344	3901.303467
1474.878906	3839.434570
1473.855469	3860.615234
1472.831055	3864.697510
1471.806641	3895.627197
1470.782227	3916.782471
1469.757813	3872.052490
1468.733398	3907.839600
1467.708008	4004.582764
1466.682617	3928.163330
1465.657227	3907.845703
1464.631836	3868.037598
1463.605469	3913.534668
1462.579102	3866.432617
1461.552734	3987.420654
1460.526367	3979.287354
1459.500000	3961.417969
1458.472656	4050.664551
1457.445313	4023.052002
1456.417969	3917.585693
1455.390625	3841.356445
1454.362305	3845.423340
1453.334961	3873.806152
1452.306641	3853.551758
1451.277344	3738.506104
1450.249023	3776.613770
1449.219727	3722.375000
1448.191406	3762.898926
1447.162109	3837.408447
1446.131836	3652.065430
1445.102539	3804.253906
1444.072266	3754.918945
1443.041992	3863.341309
1442.011719	3763.063721
1440.981445	3742.876221
1439.950195	3734.822754
1438.918945	3712.224365
1437.887695	3740.543213
1436.856445	3584.648926
1435.825195	3683.254883
1434.792969	3847.232178
1433.760742	3688.990234
1432.728516	3697.909912
1431.696289	3653.559814
1430.663086	3643.117432
1429.629883	3644.780029
1428.596680	3576.271240
1427.563477	3561.012451
1426.530273	3724.740723
1425.496094	3612.730713
1424.461914	3561.208252
1423.427734	3524.209961
1422.393555	3458.227051
1421.358398	3517.911133
1420.323242	3640.376953
1419.288086	3596.146729
1418.252930	3629.203125
1417.217773	3650.175049
1416.181641	3526.319824
1415.145508	3527.998779
1414.109375	3587.579834
1413.073242	3767.742432
1412.036133	3742.841553
1411.000000	3701.072998
1409.962891	3801.548096
1408.924805	3853.778809
1407.887695	3915.625977
1406.849609	3881.082520
1405.812500	3983.844238
1404.773438	4262.354980
1403.735352	4256.651367
1402.697266	4270.206543
1401.658203	4303.009277
1400.619141	4261.208496
1399.580078	4322.865723
1398.540039	4336.395020
1397.500977	4323.467773
1396.460938	4312.949707
1395.420898	4102.937500
1394.380859	4044.407471
1393.339844	4096.420898
1392.298828	3898.594727
1391.257813	3895.379639
1390.216797	3846.544922
1389.175781	3884.151611
1388.133789	3674.533447
1387.091797	3882.530518
1386.049805	3800.151123
1385.007813	3871.315430
1383.964844	3817.749268
1382.922852	3872.096436
1381.879883	3873.684814
1380.835938	3877.668945
1379.792969	4003.851318
1378.749023	3938.334229
1377.706055	3987.808105
1376.661133	4022.893555
1375.617188	4010.082520
1374.573242	3944.617676
1373.528320	4104.129395
1372.483398	4074.560791
1371.438477	4078.493164
1370.392578	3972.410889
1369.347656	3895.065674
1368.301758	3994.655518
1367.255859	4115.713867
1366.208984	4024.049072
1365.163086	3946.756836
1364.116211	3996.091064
1363.069336	3935.552979
1362.022461	3996.806396
1360.974609	3933.906006
1359.927734	3871.031494
1358.879883	3922.714844
1357.832031	3859.868408
1356.783203	3844.749756
1355.735352	3934.558594
1354.686523	4002.873047
1353.637695	4078.309082
1352.588867	3865.360352
1351.539063	4083.748291
1350.490234	4199.614746
1349.440430	4353.537598
1348.390625	4355.006348
1347.339844	4332.667969
1346.290039	4586.429199
1345.239258	4666.373535
1344.188477	4841.447754
1343.137695	4997.419434
1342.085938	5115.275879
1341.034180	5470.841797
1339.982422	5564.777832
1338.930664	5592.128906
1337.878906	5821.437012
1336.826172	5946.122070
1335.773438	5883.121094
1334.720703	5786.902344
1333.667969	5968.493164
1332.614258	5912.646973
1331.561523	5863.942871
1330.507813	5945.752441
1329.453125	5918.410645
1328.399414	5753.525879
1327.344727	5787.883789
1326.290039	5746.367188
1325.235352	5681.166016
1324.180664	5703.667969
1323.125000	5612.442383
1322.070313	5535.466797
1321.014648	5472.731445
1319.958008	5367.404785
1318.902344	5198.209961
1317.845703	5048.018555
1316.789063	4949.945313
1315.732422	4892.128418
1314.675781	4694.792969
1313.618164	4698.533691
1312.560547	4491.864746
1311.502930	4297.100098
1310.445313	4300.921875
1309.386719	4217.323242
1308.329102	4136.122070
1307.270508	3977.020264
1306.210938	4009.238281
1305.152344	3954.098389
1304.092773	3870.659668
1303.033203	3940.633545
1301.973633	3769.943115
1300.914063	3743.203125
1299.853516	3692.892090
1298.792969	3715.690186
1297.732422	3780.907227
1296.671875	3582.148682
1295.611328	3635.585205
1294.549805	3484.054199
1293.488281	3714.127197
1292.426758	3496.711914
1291.364258	3510.098877
1290.302734	3561.139160
1289.240234	3525.089111
1288.177734	3540.813477
1287.114258	3448.329590
1286.051758	3414.677246
1284.988281	3430.414307
1283.924805	3408.532959
1282.861328	3485.369629
1281.796875	3590.370361
1280.732422	3533.229980
1279.667969	3541.877686
1278.603516	3534.083984
1277.539063	3437.079590
1276.473633	3534.936279
1275.408203	3552.962402
1274.342773	3592.096680
1273.277344	3549.113037
1272.210938	3522.563965
1271.145508	3481.957520
1270.079102	3596.088867
1269.011719	3571.889648
1267.945313	3477.402588
1266.877930	3579.747803
1265.810547	3492.325439
1264.743164	3517.344971
1263.674805	3532.988525
1262.607422	3359.021729
1261.539063	3444.900146
1260.470703	3458.208496
1259.401367	3389.635742
1258.333008	3475.452393
1257.263672	3526.157715
1256.194336	3441.248535
1255.125000	3396.109619
1254.054688	3465.493164
1252.985352	3541.855957
1251.915039	3522.417725
1250.843750	3538.017090
1249.773438	3474.225342
1248.702148	3580.866699
1247.630859	3547.432373
1246.559570	3626.012207
1245.488281	3550.590820
1244.416016	3517.183350
1243.343750	3612.041748
1242.271484	3597.285645
1241.199219	3652.461426
1240.125977	3530.505615
1239.053711	3578.681885
1237.980469	3589.567627
1236.906250	3553.870605
1235.833008	3487.919678
1234.758789	3577.964844
1233.684570	3507.381592
1232.610352	3629.960449
1231.536133	3491.929688
1230.460938	3567.940918
1229.385742	3481.140625
1228.310547	3482.723877
1227.235352	3502.901611
1226.159180	3444.057129
1225.083008	3447.969727
1224.006836	3430.974121
1222.930664	3467.401611
1221.853516	3550.252197
1220.777344	3477.530029
1219.700195	3488.393066
1218.622070	3408.753174
1217.544922	3398.745850
1216.466797	3370.187012
1215.388672	3427.441895
1214.310547	3575.092773
1213.232422	3486.245850
1212.153320	3378.896973
1211.074219	3364.273193
1209.995117	3446.948242
1208.916016	3330.411621
1207.835938	3359.801514
1206.755859	3335.933105
1205.675781	3411.599121
1204.595703	3237.317871
1203.514648	3343.047852
1202.434570	3346.958984
1201.353516	3355.492920
1200.271484	3276.165527
1199.190430	3386.418701
1198.108398	3438.848145
1197.026367	3257.888428
1195.944336	3277.981445
1194.862305	3238.016602
1193.779297	3204.996094
1192.696289	3204.309570
1191.613281	3173.617676
1190.530273	3106.017578
1189.446289	3243.777588
1188.362305	3183.110596
1187.278320	3233.162354
1186.194336	3172.523193
1185.109375	3185.673340
1184.024414	3224.168701
1182.939453	3211.956055
1181.854492	3259.643311
1180.768555	3208.274414
1179.683594	3101.664063
1178.597656	3213.803467
1177.510742	3256.844727
1176.424805	3157.195313
1175.337891	3103.601807
1174.250977	3254.746338
1173.164063	3157.460449
1172.077148	3207.363770
1170.989258	3061.856689
1169.901367	3153.126221
1168.813477	3122.578125
1167.724609	3131.095215
1166.636719	3160.279053
1165.547852	3150.414063
1164.458984	3156.623291
1163.369141	3192.667480
1162.280273	3242.464600
1161.190430	3166.056396
1160.100586	3156.199463
1159.010742	3228.903809
1157.919922	3136.497803
1156.829102	3232.097168
1155.738281	3362.031738
1154.647461	3219.247559
1153.555664	3158.993164
1152.464844	3181.215088
1151.373047	3180.528809
1150.280273	3136.346191
1149.188477	3163.135254
1148.095703	3256.273682
1147.002930	3099.999023
1145.910156	3133.639648
1144.817383	3192.420898
1143.723633	3139.145752
1142.629883	3181.898682
1141.536133	3162.928711
1140.441406	3153.105957
1139.347656	3072.471680
1138.252930	3074.091553
1137.158203	3278.931152
1136.062500	3157.229248
1134.967773	3172.523193
1133.872070	3251.703369
1132.776367	3127.804199
1131.679688	3220.644775
1130.583984	3131.011719
1129.487305	3299.048096
1128.390625	3131.935791
1127.292969	3176.836182
1126.196289	3187.540527
1125.098633	3239.242920
1124.000977	3309.142334
1122.903320	3221.900635
1121.804688	3353.237549
1120.706055	3204.572510
1119.607422	3290.345947
1118.508789	3280.532471
1117.409180	3307.114990
1116.310547	3351.877686
1115.210938	3310.227295
1114.110352	3270.867676
1113.010742	3304.245605
1111.910156	3353.512939
1110.809570	3341.427246
1109.708984	3329.346436
1108.607422	3296.835693
1107.506836	3384.651611
1106.405273	3372.568359
1105.303711	3330.992188
1104.201172	3346.148193
1103.098633	3300.059082
1101.996094	3249.454590
1100.893555	3201.138916
1099.791016	3293.373535
1098.687500	3249.600830
1097.583984	3223.971924
1096.480469	3193.823730
1095.376953	3127.454346
1094.272461	3119.980957
1093.167969	3130.619873
1092.063477	3043.938232
1090.958008	3181.297363
1089.853516	3176.079834
1088.748047	3105.275879
1087.642578	3095.554443
1086.536133	3124.268555
1085.430664	3087.424072
1084.324219	3009.921143
1083.217773	3058.967041
1082.110352	3117.026367
1081.003906	3062.148926
1079.896484	3050.191895
1078.789063	3105.957031
1077.680664	3064.657715
1076.573242	3102.344727
1075.464844	3052.040527
1074.356445	3157.371338
1073.247070	3071.000000
1072.138672	3043.277588
1071.029297	3098.957275
1069.919922	3118.559326
1068.809570	3041.282227
1067.700195	3166.746582
1066.589844	3066.973877
1065.479492	3138.345459
1064.368164	3070.133789
1063.257813	3026.705566
1062.146484	3039.541992
1061.035156	3106.357178
1059.922852	3170.894043
1058.811523	3118.487061
1057.699219	3194.231689
1056.586914	3186.789795
1055.473633	3154.635010
1054.361328	3153.943604
1053.248047	3216.137695
1052.134766	3058.253418
1051.021484	3160.849365
1049.907227	3130.978516
1048.792969	3175.170410
1047.678711	3057.814453
1046.564453	3063.872314
1045.449219	3235.869141
1044.333984	3250.852539
1043.218750	3167.204346
1042.103516	3209.087402
1040.987305	3212.863525
1039.871094	3169.597656
1038.754883	3285.355469
1037.638672	3221.940918
1036.521484	3230.186768
1035.404297	3256.333008
1034.287109	3396.581787
1033.169922	3275.034424
1032.051758	3249.711914
1030.933594	3318.314697
1029.815430	3360.060303
1028.697266	3274.387695
1027.578125	3349.642822
1026.458984	3214.859863
1025.339844	3336.999756
1024.220703	3313.933594
1023.100586	3353.390625
1021.980469	3299.080811
1020.860352	3374.229248
1019.740234	3319.938232
1018.619141	3316.975586
1017.498047	3356.386963
1016.376953	3371.254395
1015.255859	3319.239746
1014.133789	3280.619873
1013.011719	3275.439453
1011.889648	3321.498291
1010.767578	3280.675293
1009.644531	3344.525635
1008.521484	3372.728027
1007.398438	3298.533936
1006.274414	3235.498535
1005.151367	3337.122070
1004.027344	3303.020752
1002.902344	3244.472656
1001.778320	3339.356201
1000.653320	3238.592773
999.528320	3264.543945
998.403320	3343.806641
997.278320	3311.968506
996.152344	3395.626709
995.026367	3237.232178
993.900391	3294.231201
992.773438	3271.308350
991.646484	3277.240479
990.519531	3249.894531
989.392578	3244.738770
988.265625	3306.106445
987.137695	3236.650391
986.009766	3293.559326
984.881836	3232.999756
983.752930	3223.421387
982.624023	3269.219727
981.495117	3235.278320
980.366211	3176.998291
979.236328	3220.562256
978.106445	3228.699219
976.976563	3236.832520
975.846680	3163.118896
974.715820	3091.649170
973.585938	3205.934082
972.454102	3298.062744
971.323242	3259.760010
970.191406	3236.940430
969.060547	3313.537109
967.927734	3405.558838
966.795898	3413.634033
965.663086	3518.837402
964.530273	3531.297119
963.397461	3554.783936
962.264648	3651.060547
961.130859	3749.499512
959.997070	3845.689209
958.863281	3838.219482
957.729492	3945.366699
956.594727	3818.881348
955.459961	3881.921875
954.325195	3704.845703
953.189453	3600.519043
952.053711	3467.616943
950.917969	3506.465332
949.782227	3459.469238
948.646484	3531.304199
947.509766	3468.925293
946.373047	3360.390381
945.235352	3342.051025
944.098633	3211.609863
942.960938	3155.949951
941.823242	3194.795898
940.685547	3180.902100
939.546875	3197.762207
938.408203	3113.608643
937.269531	3141.451904
936.129883	3145.139648
934.991211	3078.607910
933.851563	3097.664307
932.711914	3182.511475
931.571289	3109.436523
930.431641	3099.971924
929.291016	3059.825439
928.149414	3076.672119
927.008789	3019.020996
925.867188	3079.676270
924.725586	3223.520020
923.583984	3211.851563
922.441406	3134.520752
921.299805	3234.486328
920.157227	3093.734375
919.013672	3095.229004
917.871094	3037.674805
916.727539	3004.197266
915.583984	3051.615479
914.439453	3079.342773
913.295898	3135.462402
912.151367	3038.641357
911.006836	3009.567871
909.861328	3133.353516
908.716797	3161.030029
907.571289	3121.035156
906.424805	3174.886230
905.279297	3243.983643
904.132813	3171.280029
902.986328	3153.123291
901.839844	3196.017334
900.692383	3142.989014
899.545898	3218.552002
898.398438	3235.258057
897.250000	3149.583740
896.102539	3124.921875
894.954102	3137.282471
893.805664	3199.700439
892.656250	3142.400391
891.507813	3176.504883
890.358398	3147.512695
889.208984	3201.172363
888.058594	3204.800537
886.908203	3130.172607
885.758789	3094.696289
884.607422	3015.780518
883.457031	3088.958496
882.305664	3083.919434
881.154297	3041.970459
880.002930	3093.384277
878.850586	3075.324951
877.698242	3057.273438
876.545898	3063.092529
875.393555	2997.336914
874.240234	3000.997803
873.086914	3011.160400
871.933594	2936.790771
870.780273	3001.135010
869.625977	2926.800537
868.471680	2967.292480
867.317383	3042.412354
866.162109	3052.550293
865.007813	3004.243652
863.852539	2964.614258
862.696289	2981.252686
861.541016	2982.742188
860.384766	2930.168945
859.228516	2935.992920
858.072266	2943.975586
856.915039	2904.411865
855.757813	2979.374268
854.600586	2954.940186
853.442383	2956.431641
852.285156	2925.536133
851.126953	3019.852051
849.968750	2991.113770
848.809570	2934.339355
847.650391	3043.688232
846.491211	2933.011719
845.332031	2977.626709
844.171875	2961.863037
843.012695	3017.226807
841.851563	2943.284668
840.691406	2957.697266
839.530273	2901.031250
838.369141	3003.728027
837.208008	2863.120605
836.046875	2946.408936
834.884766	2941.437500
833.722656	2895.594482
832.560547	2948.707275
831.397461	2939.437500
830.234375	2958.118896
829.071289	2897.267334
827.908203	2976.116455
826.744141	2837.947998
825.580078	2957.583252
824.416016	2969.796143
823.251953	2820.988037
822.086914	2908.349365
820.921875	2920.564209
819.756836	2932.773438
818.590820	2914.947998
817.425781	2957.174561
816.259766	2930.775391
815.092773	2857.231689
813.926758	2989.446777
812.759766	2958.772461
811.592773	2893.839844
810.424805	2953.144287
809.257813	2877.536865
808.089844	2816.947510
806.920898	2901.908691
805.752930	2890.550781
804.583984	2881.336914
803.415039	2985.472168
802.246094	2888.577881
801.076172	2872.957031
799.906250	2902.222900
798.736328	2884.468994
797.566406	2862.450684
796.395508	2874.612793
795.224609	2952.959717
794.053711	2866.899170
792.881836	2923.869629
791.710938	2985.081299
790.538086	3041.998535
789.366211	2970.924316
788.194336	2946.791992
787.021484	2965.306152
785.848633	2902.822510
784.674805	2891.506348
783.500977	2901.498535
782.327148	2951.952637
781.153320	2908.692139
779.979492	2978.280762
778.804688	2941.418701
777.629883	2966.281982
776.454102	2920.929443
775.279297	2905.374023
774.103516	2938.733643
772.927734	2861.528320
771.750977	2909.760254
770.575195	2800.721680
769.398438	2851.069580
768.220703	2878.030273
767.043945	2868.878662
765.866211	2887.330078
764.688477	2882.425049
763.510742	2852.057129
762.332031	2904.444580
761.153320	2854.995361
759.974609	2907.357666
758.794922	2917.293213
757.616211	2869.993652
756.436523	2913.839355
755.255859	2872.917969
754.076172	3016.297119
752.895508	3009.253662
751.714844	3055.143555
750.533203	3075.611328
749.352539	3102.418457
748.170898	3177.875488
746.988281	3280.796387
745.806641	3421.736084
744.624023	3668.326416
743.441406	3965.535156
742.258789	4190.753906
741.075195	4635.606445
739.891602	5200.659668
738.708008	6122.362305
737.523438	7138.655273
736.339844	7907.504395
735.155273	9032.663086
733.969727	9811.274414
732.785156	9899.731445
731.599609	9838.409180
730.414063	9304.809570
729.227539	8316.123047
728.041992	7338.427734
726.855469	6409.642090
725.667969	5555.012207
724.481445	5073.550293
723.293945	4413.333496
722.106445	4117.604492
720.918945	3948.288330
719.730469	3745.383301
718.541992	3582.541016
717.353516	3394.534912
716.164063	3288.620117
714.975586	3180.651611
713.786133	3131.581055
712.595703	3212.810059
711.406250	2993.592041
710.215820	3018.107422
709.025391	2971.218018
707.833984	2981.031494
706.642578	2848.119385
705.451172	2967.070557
704.259766	2920.235107
703.068359	2917.466064
701.875977	2805.658936
700.683594	2861.616943
699.490234	2837.903320
698.297852	2849.822998
697.104492	2780.032959
695.910156	2865.267578
694.716797	2820.633789
693.522461	2834.639160
692.328125	2880.033691
691.132813	2952.610352
689.938477	2822.221191
688.743164	2840.395752
687.547852	2889.928467
686.351563	2947.800781
685.155273	2972.203613
683.958984	2818.972656
682.762695	2795.342041
681.565430	2882.423828
680.368164	2789.877441
679.170898	2820.550781
677.973633	2961.834961
676.775391	2833.858154
675.577148	2845.722656
674.378906	2736.603516
673.179688	2848.581299
671.980469	2766.614746
670.781250	2838.930176
669.581055	2807.016846
668.381836	2845.954346
667.181641	2786.975586
665.980469	2811.322021
664.780273	2885.624756
663.579102	2866.225342
662.377930	2925.913574
661.175781	2885.708008
659.973633	3014.005615
658.771484	2842.784424
657.569336	2962.716064
656.367188	2903.830811
655.164063	3034.083008
653.960938	2925.344238
652.756836	3063.839600
651.552734	2996.677734
650.348633	3020.900146
649.144531	2964.157471
647.939453	2944.795410
646.735352	3074.826416
645.529297	3123.899170
644.324219	3027.781494
643.118164	3089.282227
641.912109	2955.905029
640.706055	3104.433594
639.499023	3004.264648
638.292969	3092.641602
637.084961	3180.977539
635.877930	3169.889648
634.669922	3061.517334
633.461914	3201.536377
632.253906	3138.725098
631.044922	3189.713135
629.836914	3174.498779
628.626953	3210.981445
627.417969	3183.366211
626.208008	3250.829102
624.998047	3318.260498
623.788086	3208.011475
622.577148	3263.029785
621.366211	3241.627441
620.155273	3286.291016
618.944336	3256.637695
617.732422	3173.352051
616.520508	3151.989258
615.308594	3149.197510
614.095703	3049.499023
612.882813	3061.161377
611.669922	2990.381836
610.457031	2967.024658
609.243164	2949.857910
608.029297	2924.461182
606.815430	2833.187988
605.600586	2766.658936
604.385742	2751.611816
603.170898	2868.256348
601.955078	2820.278809
600.740234	2910.116699
599.524414	2771.680908
598.307617	2766.927734
597.091797	2753.955566
595.875000	2812.904053
594.658203	2760.896484
593.440430	2871.159912
592.222656	2788.363037
591.004883	2812.350586
589.787109	2764.495117
588.568359	2765.906494
587.349609	2869.885986
586.130859	2750.268066
584.912109	2722.974854
583.692383	2812.541748
582.472656	2826.236328
581.251953	2794.845947
580.032227	2734.790527
578.811523	2746.444824
577.589844	2803.140381
576.369141	2880.280518
575.147461	2805.933838
573.925781	2852.344727
572.703125	2796.449951
571.481445	2842.841064
570.258789	2831.958252
569.035156	2808.814453
567.812500	2881.739258
566.588867	2944.413574
565.365234	3005.015869
564.140625	2881.776855
562.916992	2907.652832
561.692383	2947.806641
560.466797	2967.532227
559.242188	2944.398682
558.016602	3017.155273
556.791016	2920.597656
555.564453	2803.694092
554.337891	2980.399902
553.111328	3024.546631
551.884766	2909.737305
550.657227	2943.693848
549.429688	2936.900635
548.202148	2932.146729
546.974609	2915.180176
545.746094	3085.466309
544.517578	3035.915039
543.288086	3155.235352
542.058594	3152.469238
540.829102	3117.170166
539.599609	3185.565430
538.370117	3105.561035
537.139648	3222.694092
535.909180	3158.969727
534.677734	3123.708984
533.446289	3096.586670
532.214844	3006.544434
530.983398	3038.320313
529.750977	2964.565918
528.519531	2937.505127
527.286133	2965.217773
526.053711	2903.697754
524.820313	2984.113525
523.586914	3094.893799
522.353516	3173.201172
521.119141	3081.301758
519.884766	3137.296631
518.650391	3004.949707
517.415039	2937.445801
516.179688	2926.644043
514.944336	2881.447754
513.708984	2824.134277
