#Wave		#Intensity
2109.224609	4254.004395
2107.712891	4172.959961
2106.201172	4241.509277
2104.687500	4181.074707
2103.175781	4259.510254
2101.662109	4199.098145
2100.150391	4206.452148
2098.636719	4228.668945
2097.123047	4293.814453
2095.607422	4220.238770
2094.093750	4214.375977
2092.578125	4190.360840
2091.064453	4247.208496
2089.548828	4216.598145
2088.033203	4233.831543
2086.517578	4201.588379
2085.000000	4182.548340
2083.484375	4194.833496
2081.966797	4174.154785
2080.449219	4156.780762
2078.931641	4099.880859
2077.414063	4064.414551
2075.894531	4210.077637
2074.376953	4133.449707
2072.857422	4162.184570
2071.337891	4171.162109
2069.818359	4106.107910
2068.298828	4213.776855
2066.777344	4222.737305
2065.257813	4179.085938
2063.736328	4160.107910
2062.214844	4147.711426
2060.693359	4227.325684
2059.171875	4201.779297
2057.648438	4217.300293
2056.126953	4232.814453
2054.603516	4204.000000
2053.080078	4212.945313
2051.556641	4205.479004
2050.033203	4270.196777
2048.507813	4177.434082
2046.984375	4094.549316
2045.458984	4226.466309
2043.933594	4179.666992
2042.408203	4216.462402
2040.882813	4243.412109
2039.355469	4157.326172
2037.830078	4238.320313
2036.302734	4212.853516
2034.775391	4198.856445
2033.248047	4157.042480
2031.718750	4165.971191
2030.191406	4268.144043
2028.662109	4191.995117
2027.134766	4249.967285
2025.605469	4164.044922
2024.076172	4228.536621
2022.544922	4212.925781
2021.015625	4086.220703
2019.484375	4158.854980
2017.955078	4193.895996
2016.423828	4193.000977
2014.892578	4152.927246
2013.359375	4107.974609
2011.828125	4159.313965
2010.294922	4199.211426
2008.761719	4195.053711
2007.230469	4135.454102
2005.695313	4173.700684
2004.162109	4156.510742
2002.628906	4214.292480
2001.093750	4166.144531
1999.558594	4170.143555
1998.023438	4172.512695
1996.488281	4181.393066
1994.953125	4136.548828
1993.417969	4260.991211
1991.880859	4221.030762
1990.343750	4127.399902
1988.806641	4102.123047
1987.269531	4153.288086
1985.732422	4119.887695
1984.193359	4115.760254
1982.656250	4082.381592
1981.117188	4049.017090
1979.578125	3984.802002
1978.039063	4100.891113
1976.500000	4163.346191
1974.958984	4131.616211
1973.417969	4064.191650
1971.878906	4035.741455
1970.337891	4086.800293
1968.796875	4150.813965
1967.253906	4117.498047
1965.712891	4084.196289
1964.169922	4083.328857
1962.626953	4074.358398
1961.083984	4088.076416
1959.541016	4228.146484
1957.998047	4089.580078
1956.455078	4169.676758
1954.910156	4094.320068
1953.365234	4201.897949
1951.820313	4147.603516
1950.275391	4213.058105
1948.730469	4142.608887
1947.183594	4081.892578
1945.638672	4001.799316
1944.091797	4114.108887
1942.544922	4198.895508
1940.998047	4125.291504
1939.449219	4180.959961
1937.902344	4081.548096
1936.353516	4122.668457
1934.804688	4194.446777
1933.255859	4153.204590
1931.707031	4157.165527
1930.158203	4120.788574
1928.607422	4045.712158
1927.058594	4123.881348
1925.507813	4135.907227
1923.957031	3980.270020
1922.406250	4085.802979
1920.853516	4120.389160
1919.302734	4053.462646
1917.750000	4100.926270
1916.197266	4046.915283
1914.644531	4036.398193
1913.091797	4149.833496
1911.539063	4132.861328
1909.984375	4136.813965
1908.431641	4045.851807
1906.876953	4189.747070
1905.322266	4074.691895
1903.767578	4115.629395
1902.210938	4166.192871
1900.656250	4096.210938
1899.099609	4125.871094
1897.542969	4022.194580
1895.986328	4114.490234
1894.429688	4161.788574
1892.873047	4005.195557
1891.314453	4092.620850
1889.755859	4035.594238
1888.199219	4098.911621
1886.640625	4080.401855
1885.080078	4093.971680
1883.521484	4051.421631
1881.960938	4071.403076
1880.402344	4030.478027
1878.841797	4093.715576
1877.281250	4043.191406
1875.720703	4056.750977
1874.158203	4071.905762
1872.597656	3942.974609
1871.035156	4033.372559
1869.472656	3979.713379
1867.910156	4060.465820
1866.347656	4034.015381
1864.783203	4074.741943
1863.220703	3874.024414
1861.656250	4037.853027
1860.091797	4073.758057
1858.527344	3980.222656
1856.962891	4072.037109
1855.396484	4018.470459
1853.832031	4089.479004
1852.265625	4018.369629
1850.699219	4073.386230
1849.132813	4053.375977
1847.566406	4117.934570
1845.998047	4043.688232
1844.431641	4053.997803
1842.863281	4110.542480
1841.294922	3991.708496
1839.726563	3984.490479
1838.156250	4055.354736
1836.587891	4051.312012
1835.017578	4029.750244
1833.449219	4049.601074
1831.878906	4016.903564
1830.306641	4014.463623
1828.736328	4016.798828
1827.166016	4076.412598
1825.593750	4037.373291
1824.021484	4152.622559
1822.449219	3970.474365
1820.876953	4017.328857
1819.304688	4049.858398
1817.730469	3999.741455
1816.158203	4106.932129
1814.583984	3988.521973
1813.009766	4117.902344
1811.435547	4029.706787
1809.859375	4039.967773
1808.285156	4147.036133
1806.708984	3990.659424
1805.132813	4092.933350
1803.556641	4082.552490
1801.980469	4010.332275
1800.404297	4057.047363
1798.826172	4046.680176
1797.248047	4068.011963
1795.671875	4011.698730
1794.093750	4020.355957
1792.513672	4046.430420
1790.935547	3980.656494
1789.355469	4054.219727
1787.777344	4024.874268
1786.197266	3914.839111
1784.617188	4043.740967
1783.035156	4082.429932
1781.455078	3978.777344
1779.873047	4049.084473
1778.292969	4052.971191
1776.710938	4072.660156
1775.128906	4030.718506
1773.544922	4104.113770
1771.962891	3968.998779
1770.378906	4066.061523
1768.794922	4087.304688
1767.212891	4040.667725
1765.626953	4079.265381
1764.042969	4027.916504
1762.458984	4077.541504
1760.873047	4029.368408
1759.287109	4135.733887
1757.701172	4052.887695
1756.115234	4070.943848
1754.529297	4144.142090
1752.941406	4113.333984
1751.355469	4062.062744
1749.767578	4108.445801
1748.179688	4030.432129
1746.591797	4130.319824
1745.001953	4113.708984
1743.414063	4177.348633
1741.824219	4122.981445
1740.234375	4136.264160
1738.644531	4169.981934
1737.054688	4110.934082
1735.462891	4249.948242
1733.873047	4231.763672
1732.281250	4256.005859
1730.689453	4256.676270
1729.097656	4247.923828
1727.505859	4256.445801
1725.912109	4205.313477
1724.320313	4340.961914
1722.726563	4368.286621
1721.132813	4386.187012
1719.539063	4411.921387
1717.945313	4349.833008
1716.349609	4405.351074
1714.755859	4341.722168
1713.160156	4539.821777
1711.564453	4496.558594
1709.968750	4506.571777
1708.371094	4533.807129
1706.775391	4509.360840
1705.177734	4480.228516
1703.580078	4502.755859
1701.982422	4519.014648
1700.384766	4560.296875
1698.787109	4532.741211
1697.187500	4544.291016
1695.587891	4623.062988
1693.990234	4572.064453
1692.390625	4496.083008
1690.789063	4632.624512
1689.189453	4603.524902
1687.587891	4610.357910
1685.988281	4598.450195
1684.386719	4605.281250
1682.785156	4532.508789
1681.181641	4642.339844
1679.580078	4586.750977
1677.976563	4567.061035
1676.373047	4639.386719
1674.769531	4625.929688
1673.166016	4727.829102
1671.562500	4719.033691
1669.957031	4732.055664
1668.353516	4788.690430
1666.748047	4750.294434
1665.142578	4777.314941
1663.537109	4964.675293
1661.929688	4916.926758
1660.324219	4968.791992
1658.716797	5155.991699
1657.109375	5215.560547
1655.501953	5323.314453
1653.894531	5427.912109
1652.285156	5543.346680
1650.677734	5650.960938
1649.068359	5789.605957
1647.458984	5883.139648
1645.849609	5992.165039
1644.240234	6051.452637
1642.628906	5944.595215
1641.019531	6042.671387
1639.408203	6132.946289
1637.796875	6189.048828
1636.185547	6302.521484
1634.572266	6259.307617
1632.960938	6406.827637
1631.347656	6315.552734
1629.734375	6404.102051
1628.121094	6627.423828
1626.507813	6686.433105
1624.894531	6667.972168
1623.279297	6832.248535
1621.664063	6903.561035
1620.048828	7002.704590
1618.433594	7134.304688
1616.818359	7149.804688
1615.203125	7443.742188
1613.585938	7386.479492
1611.968750	7652.407227
1610.351563	7833.195801
1608.734375	7955.173828
1607.117188	8112.640625
1605.498047	8197.427734
1603.878906	8438.182617
1602.261719	8388.510742
1600.640625	8323.420898
1599.021484	8400.370117
1597.402344	8378.514648
1595.781250	8429.188477
1594.162109	8425.846680
1592.541016	8339.221680
1590.919922	8343.610352
1589.296875	8394.245117
1587.675781	8535.794922
1586.052734	8302.824219
1584.429688	8381.165039
1582.806641	8239.206055
1581.183594	8483.844727
1579.560547	8378.875000
1577.935547	8286.263672
1576.312500	8232.166016
1574.687500	8096.541016
1573.062500	8237.876953
1571.435547	8193.050781
1569.810547	8003.700195
1568.183594	8080.394043
1566.558594	7891.146973
1564.931641	7821.843750
1563.304688	7883.161621
1561.675781	7726.333496
1560.048828	7652.500977
1558.419922	7767.552246
1556.791016	7681.460938
1555.162109	7799.525391
1553.533203	7790.182617
1551.904297	7716.412109
1550.273438	7774.575195
1548.642578	7660.969727
1547.011719	7584.206543
1545.380859	7709.800293
1543.750000	7626.928223
1542.119141	7590.054199
1540.486328	7619.062012
1538.853516	7393.836426
1537.220703	7392.250488
1535.587891	7366.171387
1533.955078	7089.107422
1532.320313	7078.404785
1530.685547	7067.706543
1529.052734	7078.424805
1527.416016	7032.559570
1525.781250	7046.337402
1524.146484	6957.699707
1522.509766	6844.648926
1520.873047	6918.041992
1519.236328	6750.056641
1517.599609	6828.019043
1515.962891	6780.745605
1514.324219	6782.340332
1512.687500	6669.469727
1511.048828	6631.414063
1509.410156	6524.725586
1507.771484	6491.291992
1506.130859	6514.292969
1504.492188	6421.417480
1502.851563	6380.405273
1501.210938	6375.983398
1499.570313	6321.285156
1497.927734	6231.575684
1496.287109	6266.782715
1494.644531	6104.038574
1493.001953	6075.322266
1491.359375	5994.872070
1489.716797	5882.502930
1488.074219	5859.936523
1486.429688	5883.007813
1484.785156	5830.037598
1483.140625	5985.369141
1481.496094	5944.558594
1479.851563	5979.746582
1478.207031	5999.725586
1476.560547	5852.608887
1474.914063	5877.161621
1473.267578	5828.824219
1471.621094	5839.708984
1469.972656	5949.236328
1468.326172	5779.526367
1466.677734	5732.766602
1465.029297	5734.560547
1463.380859	5795.490723
1461.732422	5763.916504
1460.082031	5714.167480
1458.431641	5734.145996
1456.783203	5685.938477
1455.132813	5660.472656
1453.480469	5721.336426
1451.830078	5729.181641
1450.177734	5626.520996
1448.527344	5608.654785
1446.875000	5587.769531
1445.220703	5427.720703
1443.568359	5518.801270
1441.916016	5535.750000
1440.261719	5557.225586
1438.607422	5604.386230
1436.953125	5575.970215
1435.298828	5659.363770
1433.642578	5556.935547
1431.988281	5436.429688
1430.332031	5497.150879
1428.675781	5296.708008
1427.019531	5337.813477
1425.361328	5191.808105
1423.705078	5112.238770
1422.046875	5183.519043
1420.388672	5060.258301
1418.730469	5110.413086
1417.072266	5061.072266
1415.412109	5019.286621
1413.753906	5066.403320
1412.093750	4989.991211
1410.433594	4897.047852
1408.773438	4880.926758
1407.111328	4890.400391
1405.451172	4860.742676
1403.789063	4850.656250
1402.126953	4816.506836
1400.464844	4841.022949
1398.802734	4845.981934
1397.138672	4868.977539
1395.474609	4861.903809
1393.812500	4859.340820
1392.146484	4856.778320
1390.482422	4914.293945
1388.818359	4865.169922
1387.152344	4795.049805
1385.486328	4996.629883
1383.820313	4842.476074
1382.154297	5046.957031
1380.488281	4907.858398
1378.820313	5010.260254
1377.154297	4940.197266
1375.486328	4972.094727
1373.818359	4882.587402
1372.148438	4853.051270
1370.480469	4819.033691
1368.810547	4937.792480
1367.140625	4962.166016
1365.470703	4856.289551
1363.800781	4912.100098
1362.130859	4867.629883
1360.458984	4959.316895
1358.787109	4944.769043
1357.115234	4955.648438
1355.443359	5003.898438
1353.771484	4931.055176
1352.097656	4840.310547
1350.423828	4758.569824
1348.751953	4875.530762
1347.076172	4829.658691
1345.402344	4719.604004
1343.728516	4923.074219
1342.052734	4878.712891
1340.376953	4777.671387
1338.701172	4846.734375
1337.025391	4730.829102
1335.347656	4926.615234
1333.671875	4849.502441
1331.994141	4723.238281
1330.316406	4702.828125
1328.638672	4801.609863
1326.960938	4833.321289
1325.281250	4882.888672
1323.601563	4963.698242
1321.921875	5032.563965
1320.242188	4951.095215
1318.562500	5027.371582
1316.880859	5079.813965
1315.201172	5074.232910
1313.519531	5044.864258
1311.837891	5085.374512
1310.154297	5241.789063
1308.472656	5147.023438
1306.789063	5218.679199
1305.105469	5278.420898
1303.421875	5424.258789
1301.738281	5426.030273
1300.054688	5417.410645
1298.369141	5451.827637
1296.683594	5498.097168
1294.998047	5413.820801
1293.312500	5433.384766
1291.626953	5365.467285
1289.939453	5310.919922
1288.253906	5294.925781
1286.566406	5335.239258
1284.878906	5354.796387
1283.189453	5301.777832
1281.501953	5183.635254
1279.812500	5218.014648
1278.123047	5096.981934
1276.433594	5169.834473
1274.744141	5010.403320
1273.052734	5000.418457
1271.363281	5056.977539
1269.671875	4990.809570
1267.980469	4846.337402
1266.289063	4846.739746
1264.595703	4879.643066
1262.904297	4816.525879
1261.210938	4769.679199
1259.517578	4796.670898
1257.824219	4820.697754
1256.128906	4652.873047
1254.435547	4702.001465
1252.740234	4630.154297
1251.044922	4640.922852
1249.349609	4619.249512
1247.652344	4470.815918
1245.957031	4568.561035
1244.259766	4535.129883
1242.562500	4566.527832
1240.865234	4561.092773
1239.167969	4502.652832
1237.468750	4551.701172
1235.769531	4509.477539
1234.072266	4661.501953
1232.371094	4472.161133
1230.671875	4524.112305
1228.972656	4528.984863
1227.271484	4563.257813
1225.570313	4432.897949
1223.869141	4465.706055
1222.167969	4450.018066
1220.464844	4622.343750
1218.763672	4587.536621
1217.060547	4661.387695
1215.357422	4676.492188
1213.654297	4613.812500
1211.949219	4706.679688
1210.246094	4751.099609
1208.541016	4656.180176
1206.835938	4804.689453
1205.130859	4699.538574
1203.423828	4648.658691
1201.718750	4679.852539
1200.011719	4640.718262
1198.304688	4641.143555
1196.597656	4644.496094
1194.888672	4658.094727
1193.181641	4673.149902
1191.472656	4619.425781
1189.763672	4568.651367
1188.054688	4637.830078
1186.343750	4744.996094
1184.634766	4771.708008
1182.923828	4707.788574
1181.212891	4752.031250
1179.501953	4699.831055
1177.791016	4770.345703
1176.078125	4591.119629
1174.365234	4645.566406
1172.652344	4653.279785
1170.939453	4643.478027
1169.226563	4690.579590
1167.511719	4731.825195
1165.798828	4688.469727
1164.083984	4716.574219
1162.369141	4587.239258
1160.652344	4594.950684
1158.937500	4623.055664
1157.220703	4547.724121
1155.503906	4561.263184
1153.787109	4437.930176
1152.070313	4409.271973
1150.351563	4370.438477
1148.632813	4436.384277
1146.916016	4313.188965
1145.195313	4398.023926
1143.476563	4255.988770
1141.757813	4175.073730
1140.037109	4220.639648
1138.316406	4238.576172
1136.595703	4225.997070
1134.875000	4145.160156
1133.152344	4103.565430
1131.429688	4144.738281
1129.708984	4207.664063
1127.984375	4199.457031
1126.261719	4102.756836
1124.539063	4074.270264
1122.814453	4013.893799
1121.089844	4001.386963
1119.365234	3872.929443
1117.640625	3916.975342
1115.914063	3905.946533
1114.187500	3734.142578
1112.462891	3762.259033
1110.734375	3778.780029
1109.007813	3699.759277
1107.281250	3830.611084
1105.552734	3779.103516
1103.824219	3713.153809
1102.095703	3642.895020
1100.367188	3776.531006
1098.636719	3769.891602
1096.908203	3780.596924
1095.177734	3795.631592
1093.447266	3739.877197
1091.714844	3669.705811
1089.984375	3769.942627
1088.251953	3722.892090
1086.519531	3746.580078
1084.787109	3757.270996
1083.054688	3662.649902
1081.320313	3687.776367
1079.585938	3763.357666
1077.851563	3749.526855
1076.117188	3659.315674
1074.382813	3657.041260
1072.648438	3729.677979
1070.912109	3691.381348
1069.175781	3617.103516
1067.439453	3681.060791
1065.701172	3713.324707
1063.964844	3744.134521
1062.226563	3625.313721
1060.488281	3617.294922
1058.750000	3567.578613
1057.011719	3604.142578
1055.271484	3657.937012
1053.531250	3553.639160
1051.791016	3715.168457
1050.050781	3517.543945
1048.310547	3608.643311
1046.568359	3633.660156
1044.826172	3579.721924
1043.083984	3540.157959
1041.341797	3583.822998
1039.599609	3626.033203
1037.855469	3595.088867
1036.113281	3614.337646
1034.369141	3560.475586
1032.623047	3565.392090
1030.878906	3577.469727
1029.132813	3563.758545
1027.386719	3590.150635
1025.640625	3497.697510
1023.894531	3529.817383
1022.148438	3467.472168
1020.400391	3509.598877
1018.652344	3404.373535
1016.904297	3509.418213
1015.156250	3548.645752
1013.406250	3546.401611
1011.658203	3532.725098
1009.908203	3517.625977
1008.158203	3471.107666
1006.408203	3506.012695
1004.656250	3489.501221
1002.904297	3535.804932
1001.152344	3691.975830
999.400391	3666.870850
997.648438	3616.100830
995.896484	3485.489990
994.142578	3561.681641
992.388672	3386.952393
990.634766	3480.232910
988.878906	3456.634033
987.125000	3512.817627
985.369141	3474.979736
983.613281	3484.145752
981.857422	3571.600586
980.099609	3519.542236
978.343750	3567.107910
976.585938	3448.214844
974.828125	3517.107178
973.070313	3530.514404
971.310547	3468.572998
969.552734	3547.360352
967.792969	3550.803955
966.033203	3618.170654
964.273438	3556.264648
962.511719	3515.685547
960.750000	3581.593262
958.990234	3617.665771
957.226563	3703.383545
955.464844	3719.550049
953.703125	3661.958984
951.939453	3727.754883
950.175781	3745.321045
948.412109	3629.654541
946.648438	3594.807373
944.882813	3678.972168
943.117188	3604.472900
941.351563	3663.108398
939.585938	3639.609375
937.820313	3722.269287
936.052734	3700.181641
934.285156	3644.152100
932.517578	3562.690430
930.750000	3498.234131
928.982422	3529.937012
927.212891	3478.237549
925.443359	3559.385010
923.673828	3521.828857
921.904297	3583.155029
920.132813	3419.939209
918.361328	3534.904541
916.591797	3470.571289
914.818359	3507.863037
913.046875	3375.850830
911.275391	3420.198486
909.501953	3347.489990
907.728516	3422.837158
905.955078	3420.631592
904.179688	3442.381104
902.406250	3435.945068
900.630859	3461.905273
898.855469	3363.940674
897.080078	3380.050537
895.302734	3456.672607
893.525391	3429.132324
891.750000	3594.333984
889.970703	3604.747803
888.193359	3581.409668
886.416016	3535.589111
884.636719	3517.898926
882.857422	3532.535156
881.078125	3412.301758
879.296875	3459.258057
877.517578	3393.859375
875.736328	3423.951660
873.955078	3505.959229
872.173828	3383.064209
870.390625	3414.539551
868.609375	3353.433594
866.826172	3428.368652
865.042969	3392.520752
863.259766	3290.817139
861.474609	3304.059814
859.689453	3328.503418
857.904297	3308.117188
856.119141	3360.552246
854.333984	3422.761475
852.546875	3325.390137
850.761719	3344.201172
848.974609	3418.960205
847.185547	3439.138672
845.398438	3387.995850
843.609375	3429.140381
841.822266	3435.325195
840.031250	3406.574707
838.242188	3429.524658
836.453125	3330.957031
834.662109	3288.287109
832.871094	3316.831787
831.080078	3328.614746
829.289063	3299.927734
827.496094	3410.752686
825.703125	3305.352783
823.910156	3229.282959
822.117188	3306.589600
820.324219	3344.836426
818.529297	3249.302979
816.734375	3217.893311
814.939453	3341.087891
813.144531	3341.695313
811.347656	3475.938477
809.550781	3427.803223
807.755859	3482.653320
805.957031	3490.180908
804.160156	3492.141846
802.361328	3481.587646
800.564453	3386.243164
798.765625	3427.139404
796.964844	3291.558350
795.166016	3261.612549
793.365234	3320.562256
791.564453	3192.043213
789.763672	3127.438232
787.962891	3160.008789
786.160156	3134.290039
784.359375	3093.324707
782.556641	3116.171875
780.751953	3097.413086
778.949219	3081.435303
777.144531	2979.543213
775.339844	2987.153809
773.535156	3040.471436
771.730469	2970.511719
769.925781	3027.961182
768.119141	3111.683105
766.312500	3018.229492
764.505859	3031.352783
762.697266	2967.009033
760.890625	2970.457520
759.082031	2971.138672
757.273438	2955.232422
755.464844	2972.499512
753.654297	3013.244873
751.845703	3004.245605
750.035156	2940.012695
748.224609	3059.430908
746.412109	3038.003662
744.601563	3005.546387
742.789063	2984.141357
740.976563	2937.918701
739.164063	3000.656982
737.349609	3026.141602
735.537109	2986.832764
733.722656	2964.077881
731.908203	2975.775635
730.091797	3021.901123
728.277344	2961.974121
726.460938	2914.465088
724.644531	2955.066162
722.828125	3024.544678
721.009766	2960.545410
719.193359	3034.115234
717.375000	2975.643799
715.556641	2902.077393
713.736328	2993.475586
711.917969	2965.284180
710.097656	3004.420410
708.277344	2973.492676
706.457031	2998.876709
704.636719	2943.254150
702.814453	2919.224365
700.992188	2969.300781
699.169922	2921.954834
697.347656	2982.978516
695.523438	3001.466797
693.699219	3007.608643
691.875000	2945.221924
690.050781	2934.931641
688.226563	2913.687012
686.400391	2981.471680
684.574219	3021.839844
682.748047	3011.540039
680.921875	3051.881348
679.095703	3085.362061
677.267578	3047.695557
675.439453	3020.987305
673.611328	3094.101074
671.781250	3107.035156
669.953125	3173.260254
668.123047	3168.406982
666.292969	3178.581299
664.460938	3218.794434
662.630859	3319.061523
660.798828	3301.892334
658.966797	3318.847412
657.134766	3352.166016
655.302734	3456.397217
653.468750	3398.300049
651.634766	3482.019531
649.800781	3557.520508
647.966797	3499.439941
646.130859	3553.102295
644.294922	3599.928467
642.458984	3490.132080
640.623047	3423.953125
638.787109	3408.165771
636.949219	3453.619873
635.111328	3397.019043
633.273438	3336.364502
631.435547	3327.410889
629.595703	3224.657959
627.757813	3215.734375
625.917969	3164.691650
624.076172	3215.560059
622.236328	3089.841553
620.394531	3047.011719
618.552734	2987.911621
616.710938	3010.271484
614.869141	2934.925293
613.025391	2896.241699
611.183594	2898.263428
609.339844	2946.384521
607.494141	2861.635498
605.650391	2909.741943
603.804688	2872.464355
601.958984	2827.076660
600.113281	2877.864746
598.267578	2810.833496
596.419922	2852.125488
594.572266	2781.072021
592.724609	2765.525146
590.876953	2817.618896
589.027344	2780.432617
587.179688	2770.304443
585.330078	2793.973389
583.480469	2732.493896
581.628906	2768.319824
579.779297	2748.748047
577.927734	2717.031982
576.076172	2627.276611
574.222656	2745.428467
572.371094	2727.229736
570.517578	2694.198975
568.664063	2661.183838
566.810547	2694.259766
564.955078	2694.963867
563.101563	2636.362549
561.246094	2620.909668
559.390625	2602.769531
557.533203	2564.435059
555.677734	2610.950928
553.820313	2582.055664
551.962891	2628.544678
550.105469	2532.379883
548.246094	2600.382324
546.386719	2597.070557
544.527344	2613.929199
542.667969	2581.040771
540.808594	2564.295654
538.947266	2583.836914
537.085938	2638.295166
535.224609	2616.175537
533.363281	2639.717773
531.500000	2562.571533
529.638672	2583.430908
527.775391	2620.380615
525.910156	2696.213135
524.046875	2755.916260
522.181641	2993.911377
520.316406	3277.367432
518.451172	3269.882080
516.585938	2970.324951
514.718750	2699.040039
512.851563	2698.393799
510.984375	2558.509033
509.117188	2559.234863
507.250000	2511.785400
505.380859	2568.712402
503.511719	2537.333496
501.642578	2582.191650
499.771484	2521.412109
497.902344	2518.135010
496.031250	2588.354248
494.160156	2528.952393
492.287109	2589.785645
490.416016	2545.099854
488.542969	2555.170166
486.669922	2523.860596
484.796875	2583.301758
482.921875	2523.985596
481.046875	2498.040283
479.171875	2508.108887
477.296875	2447.519775
475.421875	2454.929688
473.544922	2429.025391
471.667969	2489.720459
469.791016	2497.114746
467.914063	2439.262695
466.035156	2510.560791
464.156250	2524.598389
462.277344	2486.738770
460.398438	2492.793701
458.519531	2494.856201
456.638672	2500.906006
454.757813	2548.159424
452.876953	2477.115723
450.994141	2495.122559
449.113281	2534.373291
447.230469	2475.335205
445.347656	2430.929443
443.462891	2482.112793
441.580078	2399.242920
439.695313	2478.269775
437.810547	2472.370117
435.925781	2490.342529
434.039063	2448.647461
432.152344	2493.125244
430.267578	2439.523193
428.378906	2521.075684
426.492188	2409.215576
424.603516	2433.797119
422.714844	2569.569092
420.826172	2486.895020
418.937500	2416.169189
417.046875	2430.141846
415.158203	2463.946289
413.265625	2493.767578
411.375000	2454.833740
409.484375	2463.496826
407.591797	2425.909912
405.699219	2467.600098
403.806641	2423.426758
401.912109	2383.235352
400.019531	2407.744873
