#Wave		#Intensity
2109.224609	4086.953613
2107.712891	4070.414063
2106.201172	3983.545898
2104.687500	3951.272949
2103.175781	3988.435303
2101.662109	4030.539551
2100.150391	4034.625244
2098.636719	3962.725342
2097.123047	3909.022705
2095.607422	4010.547852
2094.093750	3938.699707
2092.578125	3977.459473
2091.064453	4073.954102
2089.548828	3982.342773
2088.033203	4017.769531
2086.517578	4033.393066
2085.000000	3999.551514
2083.484375	4034.951660
2081.966797	3872.587402
2080.449219	3952.483887
2078.931641	3900.569580
2077.414063	3860.205811
2075.894531	3977.922607
2074.376953	4033.035400
2072.857422	4004.189697
2071.337891	3940.802246
2069.818359	3892.247803
2068.298828	3962.134277
2066.777344	4004.036377
2065.257813	3911.111328
2063.736328	3990.810791
2062.214844	3848.629150
2060.693359	3948.023193
2059.171875	3960.316650
2057.648438	4013.661133
2056.126953	4011.157959
2054.603516	3921.654053
2053.080078	4101.344238
2051.556641	3939.662354
2050.033203	4017.561279
2048.507813	3983.897461
2046.984375	3963.366455
2045.458984	3975.632813
2043.933594	4073.126221
2042.408203	3970.652588
2040.882813	3876.414551
2039.355469	3962.400391
2037.830078	3964.827637
2036.302734	3967.253906
2034.775391	3976.227051
2033.248047	3955.737061
2031.718750	3992.525391
2030.191406	4011.302979
2028.662109	3930.302002
2027.134766	3975.248291
2025.605469	3917.177979
2024.076172	3882.015869
2022.544922	3946.553955
2021.015625	3880.357422
2019.484375	3894.230225
2017.955078	3859.103027
2016.423828	3872.974121
2014.892578	3886.839600
2013.359375	4029.634277
2011.828125	3987.980957
2010.294922	3863.144043
2008.761719	3860.688965
2007.230469	3960.969238
2005.695313	3968.276367
2004.162109	3947.870361
2002.628906	3855.768066
2001.093750	3942.929199
1999.558594	3929.057129
1998.023438	3910.305420
1996.488281	3966.461914
1994.953125	3810.964600
1993.417969	3945.241699
1991.880859	3952.537842
1990.343750	3898.009277
1988.806641	3928.083740
1987.269531	3956.519287
1985.732422	3893.895264
1984.193359	3922.325928
1982.656250	4015.750244
1981.117188	3982.400146
1979.578125	3984.802002
1978.039063	3943.351807
1976.500000	3955.503662
1974.958984	3940.052002
1973.417969	3971.676025
1971.878906	3927.018311
1970.337891	3882.379150
1968.796875	3959.412598
1967.253906	4016.952637
1965.712891	3933.410156
1964.169922	3927.711914
1962.626953	3917.153809
1961.083984	3930.905029
1959.541016	3902.530762
1957.998047	3879.027344
1956.455078	3972.123047
1954.910156	3909.760010
1953.365234	3947.776855
1951.820313	3963.121826
1950.275391	3984.931885
1948.730469	3848.210205
1947.183594	3850.628418
1945.638672	3849.811768
1944.091797	3907.191162
1942.544922	3856.260254
1940.998047	3936.235596
1939.449219	3911.168457
1937.902344	3939.412598
1936.353516	3836.843018
1934.804688	3908.682129
1933.255859	3948.207520
1931.707031	3874.749512
1930.158203	3961.055664
1928.607422	3929.567383
1927.058594	3854.546875
1925.507813	3987.562988
1923.957031	3904.501465
1922.406250	3845.651367
1920.853516	3859.339844
1919.302734	3869.800049
1917.750000	3891.531006
1916.197266	3914.863037
1914.644531	3930.134766
1913.091797	3876.182617
1911.539063	3910.768311
1909.984375	3829.489258
1908.431641	3864.069824
1906.876953	3901.852539
1905.322266	3929.971191
1903.767578	3869.656006
1902.210938	3925.093750
1900.656250	3832.665283
1899.099609	3913.793457
1897.542969	3821.406250
1895.986328	3851.111328
1894.429688	3859.930664
1892.873047	3870.351318
1891.314453	3879.162598
1889.755859	3875.133301
1888.199219	3872.709473
1886.640625	3942.463867
1885.080078	3843.811035
1883.521484	3926.367676
1881.960938	3907.905762
1880.402344	3902.271973
1878.841797	3869.402344
1877.281250	3830.138916
1875.720703	3899.798096
1874.158203	3897.372803
1872.597656	3909.356201
1871.035156	3855.712158
1869.472656	3850.096680
1867.910156	3828.484863
1866.347656	3782.889160
1864.783203	3854.053467
1863.220703	3877.222168
1861.656250	3842.833984
1860.091797	3771.702393
1858.527344	3839.612793
1856.962891	3873.946777
1855.396484	3845.976563
1853.832031	3889.875244
1852.265625	3852.334473
1850.699219	3869.078369
1849.132813	3820.386719
1847.566406	3829.152588
1845.998047	3821.963379
1844.431641	3875.379639
1842.863281	3850.644043
1841.294922	3875.336914
1839.726563	3952.614502
1838.156250	3959.747070
1836.587891	3852.171631
1835.017578	3838.615723
1833.449219	3844.175049
1831.878906	3862.468506
1830.306641	3871.203613
1828.736328	3921.312256
1827.166016	3885.479736
1825.593750	3875.114746
1824.021484	3842.487793
1822.449219	3857.577393
1820.876953	3945.789551
1819.304688	3924.293701
1817.730469	3888.505127
1816.158203	3930.580322
1814.583984	3880.509277
1813.009766	3962.270264
1811.435547	3893.160400
1809.859375	3852.653076
1808.285156	3824.859131
1806.708984	3903.388672
1805.132813	3812.138916
1803.556641	3949.322266
1801.980469	3854.929932
1800.404297	4004.729004
1798.826172	3907.194092
1797.248047	3901.614746
1795.671875	3877.024902
1794.093750	3857.197266
1792.513672	3864.301270
1790.935547	3822.316895
1789.355469	3908.578125
1787.777344	3850.774414
1786.197266	3881.608887
1784.617188	3847.565918
1783.035156	3827.772461
1781.455078	3857.010254
1779.873047	3879.911377
1778.292969	3839.573730
1776.710938	3933.585938
1775.128906	3866.392822
1773.544922	3822.923584
1771.962891	3872.656250
1770.378906	3903.419189
1768.794922	3899.437012
1767.212891	3881.250977
1765.626953	3870.962402
1764.042969	3873.300049
1762.458984	3826.737305
1760.873047	3871.663086
1759.287109	3902.379395
1757.701172	3903.131104
1756.115234	3908.610352
1754.529297	3961.358643
1752.941406	3954.219971
1751.355469	3999.060547
1749.767578	3960.421875
1748.179688	4017.837158
1746.591797	4035.876465
1745.001953	4035.023193
1743.414063	3975.954590
1741.824219	3921.629883
1740.234375	4016.736816
1738.644531	4061.486816
1737.054688	3958.444092
1735.462891	4081.773438
1733.873047	3997.626221
1732.281250	4119.323242
1730.689453	4065.047363
1729.097656	4163.122559
1727.505859	4038.206543
1725.912109	4043.631104
1724.320313	4107.121094
1722.726563	4190.981934
1721.132813	4127.345215
1719.539063	4088.830322
1717.945313	4095.805420
1716.349609	4046.338379
1714.755859	4083.099854
1713.160156	4124.546387
1711.564453	4147.174805
1709.968750	4168.226563
1708.371094	4201.797852
1706.775391	4177.421875
1705.177734	4121.747559
1703.580078	4059.836182
1701.982422	4170.073730
1700.384766	4111.307129
1698.787109	4124.512695
1697.187500	4172.115723
1695.587891	4152.470703
1693.990234	4179.726563
1692.390625	4171.026855
1690.789063	4087.333984
1689.189453	4122.395996
1687.587891	4068.422119
1685.988281	4108.157227
1684.386719	4179.097656
1682.785156	4195.379883
1681.181641	4177.325684
1679.580078	4246.645020
1677.976563	4209.869141
1676.373047	4263.557617
1674.769531	4251.739258
1673.166016	4296.042480
1671.562500	4302.923340
1669.957031	4347.196289
1668.353516	4346.273926
1666.748047	4398.305664
1665.142578	4389.586426
1663.537109	4457.154297
1661.929688	4398.618164
1660.324219	4403.909180
1658.716797	4609.898438
1657.109375	4713.137207
1655.501953	4654.595215
1653.894531	4639.613281
1652.285156	4688.371582
1650.677734	4870.767578
1649.068359	4778.056152
1647.458984	4876.465820
1645.849609	4887.854980
1644.240234	4927.189941
1642.628906	4966.508301
1641.019531	4973.213379
1639.408203	5144.412109
1637.796875	5067.293457
1636.185547	5129.814941
1634.572266	5117.867676
1632.960938	5113.678223
1631.347656	5256.759766
1629.734375	5261.840820
1628.121094	5280.865234
1626.507813	5292.135254
1624.894531	5396.333496
1623.279297	5471.063965
1621.664063	5482.285156
1620.048828	5498.144531
1618.433594	5687.325195
1616.818359	5551.503906
1615.203125	5604.463379
1613.585938	5675.958984
1611.968750	5704.128418
1610.351563	5723.009766
1608.734375	5714.062012
1607.117188	5734.478027
1605.498047	5943.366699
1603.878906	5903.484375
1602.261719	6014.958008
1600.640625	6104.768066
1599.021484	6138.969238
1597.402344	6165.438965
1595.781250	6253.615234
1594.162109	6253.823242
1592.541016	6050.447266
1590.919922	6223.398926
1589.296875	6206.653809
1587.675781	6236.154785
1586.052734	6157.773926
1584.429688	6102.536133
1582.806641	6182.870117
1581.183594	6143.049316
1579.560547	6172.530273
1577.935547	6161.975098
1576.312500	6052.927734
1574.687500	6045.479004
1573.062500	6011.881348
1571.435547	5999.829590
1569.810547	5893.983398
1568.183594	5811.242188
1566.558594	5925.276855
1564.931641	5808.756348
1563.304688	5807.513184
1561.675781	5881.537109
1560.048828	5849.563477
1558.419922	5865.200684
1556.791016	6023.591797
1555.162109	6203.400391
1553.533203	6222.019043
1551.904297	6565.854004
1550.273438	6602.791016
1548.642578	6644.312012
1547.011719	6667.417480
1545.380859	6626.136230
1543.750000	6572.612793
1542.119141	6411.864746
1540.486328	6471.760742
1538.853516	6404.520508
1537.220703	6372.523926
1535.587891	6176.746094
1533.955078	6242.761230
1532.320313	6042.503418
1530.685547	6169.709961
1529.052734	6247.918457
1527.416016	6304.684570
1525.781250	6291.099609
1524.146484	6291.276855
1522.509766	6260.890137
1520.873047	6285.518066
1519.236328	6352.904785
1517.599609	6363.756836
1515.962891	6217.337402
1514.324219	6234.318848
1512.687500	6281.816406
1511.048828	6240.792480
1509.410156	6271.485840
1507.771484	6082.535645
1506.130859	5994.308594
1504.492188	5970.149902
1502.851563	5787.481445
1501.210938	5807.569824
1499.570313	5733.187988
1497.927734	5536.978027
1496.287109	5589.086914
1494.644531	5593.972656
1493.001953	5519.698730
1491.359375	5623.521973
1489.716797	5547.750977
1488.074219	5627.182129
1486.429688	5522.544434
1484.785156	5420.992188
1483.140625	5517.121094
1481.496094	5446.012207
1479.851563	5479.788086
1478.207031	5405.678711
1476.560547	5462.232422
1474.914063	5503.574707
1473.267578	5415.841797
1471.621094	5361.541992
1469.972656	5410.465820
1468.326172	5480.611328
1466.677734	5511.283691
1465.029297	5428.191406
1463.380859	5446.729980
1461.732422	5456.164063
1460.082031	5591.395996
1458.431641	5488.656738
1456.783203	5446.562500
1455.132813	5471.133789
1453.480469	5416.945801
1451.830078	5312.816895
1450.177734	5332.858398
1448.527344	5269.653809
1446.875000	5176.214355
1445.220703	5032.894531
1443.568359	5051.465332
1441.916016	5050.370117
1440.261719	5056.833496
1438.607422	4959.004883
1436.953125	4950.373535
1435.298828	4928.148438
1433.642578	4975.413574
1431.988281	4882.216309
1430.332031	4699.980957
1428.675781	4670.280762
1427.019531	4628.519531
1425.361328	4488.703613
1423.705078	4519.406250
1422.046875	4433.967285
1420.388672	4466.175781
1418.730469	4441.084473
1417.072266	4411.482422
1415.412109	4485.865234
1413.753906	4478.863281
1412.093750	4569.765625
1410.433594	4505.524902
1408.773438	4564.765137
1407.111328	4717.301758
1405.451172	4815.596191
1403.789063	4891.279297
1402.126953	4998.517090
1400.464844	5144.809082
1398.802734	5179.772949
1397.138672	5141.062988
1395.474609	5233.122070
1393.812500	5170.375000
1392.146484	5053.573242
1390.482422	4908.286133
1388.818359	4895.202148
1387.152344	4981.207031
1385.486328	4921.582520
1383.820313	4891.996094
1382.154297	5084.464355
1380.488281	5044.354492
1378.820313	5289.191406
1377.154297	5371.996094
1375.486328	5304.866699
1373.818359	5449.075195
1372.148438	5488.337891
1370.480469	5484.141113
1368.810547	5325.687012
1367.140625	5369.441406
1365.470703	5285.930176
1363.800781	5250.349121
1362.130859	5234.235840
1360.458984	5274.978027
1358.787109	5270.831055
1357.115234	5247.245117
1355.443359	5210.213867
1353.771484	5235.976563
1352.097656	5345.412598
1350.423828	5483.187500
1348.751953	5732.930664
1347.076172	5834.717285
1345.402344	6021.563965
1343.728516	6336.704102
1342.052734	6538.281250
1340.376953	6808.405762
1338.701172	7051.558594
1337.025391	7237.930176
1335.347656	7315.367676
1333.671875	7491.162109
1331.994141	7593.846680
1330.316406	7458.065430
1328.638672	7496.649414
1326.960938	7433.931641
1325.281250	7308.696777
1323.601563	7298.155273
1321.921875	7175.980957
1320.242188	7159.519043
1318.562500	6948.158203
1316.880859	6849.939453
1315.201172	6751.763672
1313.519531	6537.656738
1311.837891	6380.130859
1310.154297	6198.895020
1308.472656	6059.342285
1306.789063	6075.832031
1305.105469	5899.236816
1303.421875	5788.053711
1301.738281	5526.979492
1300.054688	5558.412109
1298.369141	5353.890625
1296.683594	5303.750000
1294.998047	5182.435547
1293.312500	5034.481934
1291.626953	4959.239746
1289.939453	4913.675293
1288.253906	4871.094727
1286.566406	4841.866699
1284.878906	4743.031250
1283.189453	4722.729004
1281.501953	4764.621094
1279.812500	4648.103516
1278.123047	4709.232422
1276.433594	4768.854004
1274.744141	4841.762207
1273.052734	4791.882813
1271.363281	4799.692383
1269.671875	4811.933105
1267.980469	4778.350098
1266.289063	4707.839355
1264.595703	4718.613281
1262.904297	4692.457031
1261.210938	4611.674316
1259.517578	4659.370117
1257.824219	4562.393555
1256.128906	4494.973145
1254.435547	4573.644531
1252.740234	4512.150879
1251.044922	4469.855957
1249.349609	4524.888672
1247.652344	4457.549316
1245.957031	4564.140137
1244.259766	4594.065918
1242.562500	4463.412598
1240.865234	4556.674805
1239.167969	4421.669922
1237.468750	4489.873535
1235.769531	4550.687012
1234.072266	4424.601074
1232.371094	4489.814453
1230.671875	4462.339355
1228.972656	4480.459961
1227.271484	4398.604004
1225.570313	4443.186523
1223.869141	4336.393066
1222.167969	4389.783203
1220.464844	4302.143555
1218.763672	4324.678223
1217.060547	4241.495605
1215.357422	4302.196777
1213.654297	4273.353027
1211.949219	4325.215820
1210.246094	4136.493164
1208.541016	4142.900391
1206.835938	4227.012207
1205.130859	4215.805664
1203.423828	4192.879395
1201.718750	4149.449707
1200.011719	4273.035156
1198.304688	4235.464355
1196.597656	4246.229492
1194.888672	4147.197266
1193.181641	4201.883301
1191.472656	4205.331055
1189.763672	4113.687988
1188.054688	4114.228027
1186.343750	4167.408203
1184.634766	4156.239746
1182.923828	4052.995361
1181.212891	4125.148926
1179.501953	4146.136719
1177.791016	4132.059570
1176.078125	4126.750488
1174.365234	4061.585449
1172.652344	4209.554199
1170.939453	4173.584961
1169.226563	4318.542969
1167.511719	4125.031250
1165.798828	4172.227539
1164.083984	4245.645996
1162.369141	4199.502930
1160.652344	4150.465820
1158.937500	4164.101074
1157.220703	4094.699951
1155.503906	4069.019531
1153.787109	4073.926758
1152.070313	4011.869629
1150.351563	3836.322266
1148.632813	3892.203369
1146.916016	3964.060547
1145.195313	4006.797363
1143.476563	4074.233398
1141.757813	4025.341064
1140.037109	4053.500000
1138.316406	3953.776611
1136.595703	3980.485352
1134.875000	3951.990479
1133.152344	3845.095947
1131.429688	3845.678467
1129.708984	3876.740234
1127.984375	3854.097168
1126.261719	3724.107666
1124.539063	3760.976318
1122.814453	3723.872559
1121.089844	3753.475098
1119.365234	3761.321777
1117.640625	3711.199951
1115.914063	3661.100342
1114.187500	3618.265381
1112.462891	3630.478760
1110.734375	3535.548096
1109.007813	3686.731934
1107.281250	3681.554443
1105.552734	3740.039063
1103.824219	3598.880615
1102.095703	3629.879395
1100.367188	3571.221924
1098.636719	3503.917725
1096.908203	3568.155273
1095.177734	3552.895996
1093.447266	3537.643555
1091.714844	3450.187744
1089.984375	3394.536621
1088.251953	3422.635498
1086.519531	3374.231201
1084.787109	3360.477783
1083.054688	3395.777100
1081.320313	3396.446533
1079.585938	3418.743652
1077.851563	3415.082275
1076.117188	3417.187012
1074.382813	3465.399658
1072.648438	3427.154785
1070.912109	3492.625732
1069.175781	3415.513428
1067.439453	3433.449463
1065.701172	3416.834473
1063.964844	3426.127686
1062.226563	3425.345947
1060.488281	3454.768311
1058.750000	3374.892090
1057.011719	3425.876221
1055.271484	3456.714600
1053.531250	3463.109863
1051.791016	3399.106201
1050.050781	3480.199463
1048.310547	3406.168701
1046.568359	3365.191406
1044.826172	3410.352539
1043.083984	3400.962402
1041.341797	3368.621338
1039.599609	3293.264404
1037.855469	3438.780762
1036.113281	3390.681641
1034.369141	3425.739258
1032.623047	3417.789551
1030.878906	3462.853027
1029.132813	3472.086182
1027.386719	3519.980225
1025.640625	3523.468506
1023.894531	3453.953613
1022.148438	3536.163330
1020.400391	3581.135742
1018.652344	3545.984131
1016.904297	3619.534424
1015.156250	3591.538330
1013.406250	3563.554688
1011.658203	3624.187256
1009.908203	3531.913574
1008.158203	3599.667236
1006.408203	3558.852783
1004.656250	3619.429443
1002.904297	3568.636475
1001.152344	3600.639648
999.400391	3495.655273
997.648438	3462.042236
995.896484	3505.455811
994.142578	3507.500732
992.388672	3522.373535
990.634766	3532.963623
988.878906	3530.725098
987.125000	3595.438721
985.369141	3547.612549
983.613281	3569.576416
981.857422	3541.706787
980.099609	3623.435059
978.343750	3589.873535
976.585938	3495.158447
974.828125	3426.086426
973.070313	3500.655029
971.310547	3430.191162
969.552734	3513.251221
967.792969	3449.920654
966.033203	3430.656494
964.273438	3401.459229
962.511719	3443.270508
960.750000	3475.125000
958.990234	3529.672363
957.226563	3612.572510
955.464844	3614.574219
953.703125	3507.368164
951.939453	3512.228516
950.175781	3463.217041
948.412109	3332.025635
946.648438	3312.833740
944.882813	3384.314453
943.117188	3282.973633
941.351563	3333.187988
939.585938	3390.456787
937.820313	3307.583008
936.052734	3322.381104
934.285156	3361.221191
932.517578	3322.254883
930.750000	3273.408203
928.982422	3350.400635
927.212891	3311.462891
925.443359	3341.780762
923.673828	3319.814697
921.904297	3364.239258
920.132813	3404.406982
918.361328	3277.974609
916.591797	3220.758057
914.818359	3259.518799
913.046875	3240.421875
911.275391	3214.281494
909.501953	3143.031006
907.728516	3238.161865
905.955078	3259.959229
904.179688	3311.336670
902.406250	3366.916260
900.630859	3330.921875
898.855469	3240.028320
897.080078	3308.254395
895.302734	3287.779785
893.525391	3237.765137
891.750000	3232.790283
889.970703	3202.501465
888.193359	3263.624512
886.416016	3248.805664
884.636719	3194.640137
882.857422	3140.499512
881.078125	3167.863525
879.296875	3023.866455
877.517578	3023.160645
875.736328	3067.377686
873.955078	3023.153076
872.173828	3029.463135
870.390625	3030.158447
868.609375	3078.538818
866.826172	3075.015381
865.042969	3114.950928
863.259766	3049.751953
861.474609	3022.416016
859.689453	3077.744873
857.904297	3042.011230
856.119141	3108.510742
854.333984	3109.183350
852.546875	2950.303955
850.761719	3046.161621
848.974609	3003.480957
847.185547	3025.155273
845.398438	3011.862549
843.609375	2972.014893
841.822266	3063.561035
840.031250	2984.595459
838.242188	2995.071777
836.453125	2959.454102
834.662109	2900.115723
832.871094	2934.335205
831.080078	2972.725098
829.289063	3047.375000
827.496094	2932.270996
825.703125	2985.974854
823.910156	2989.457031
822.117188	2952.511230
820.324219	2988.053955
818.529297	2967.845215
816.734375	2979.685547
814.939453	2997.090820
813.144531	3031.196045
811.347656	3056.932861
809.550781	2917.042480
807.755859	2963.664307
805.957031	2964.358643
804.160156	2977.568848
802.361328	2975.478271
800.564453	2852.451172
798.765625	2919.878174
796.964844	2880.287109
795.166016	2929.617188
793.365234	2998.366455
791.564453	3014.321777
789.763672	2930.324951
787.962891	2983.758789
786.160156	2978.893799
784.359375	2943.513428
782.556641	2895.668213
780.751953	2849.231934
778.949219	2946.977783
777.144531	2900.550781
775.339844	2890.168213
773.535156	2957.360596
771.730469	2899.884277
769.925781	2903.353760
768.119141	2912.358398
766.312500	2861.851807
764.505859	2908.217041
762.697266	2906.147461
760.890625	2971.840332
759.082031	2907.540527
757.273438	3065.811768
755.464844	2890.966309
753.654297	3049.166260
751.845703	3187.953369
750.035156	3174.771729
748.224609	3259.619385
746.412109	3394.116699
744.601563	3484.391602
742.789063	3871.244141
740.976563	4399.981445
739.164063	5293.897949
737.349609	6759.531738
735.537109	8574.566406
733.722656	9914.709961
731.908203	10281.580078
730.091797	9634.548828
728.277344	8132.690918
726.460938	6383.738770
724.644531	5107.708984
722.828125	4144.644531
721.009766	3758.461914
719.193359	3427.477539
717.375000	3261.657471
715.556641	3017.555664
713.736328	3058.072998
711.917969	3031.240479
710.097656	2871.165527
708.277344	2939.156738
706.457031	2867.058105
704.636719	2832.058350
702.814453	2882.167969
700.992188	2896.577637
699.169922	2847.877197
697.347656	2849.944580
695.523438	2782.081543
693.699219	2863.671143
691.875000	2916.441406
690.050781	2978.777344
688.226563	3053.412354
686.400391	3128.011719
684.574219	3069.762207
682.748047	3038.917725
680.921875	2912.288574
679.095703	2877.390869
677.267578	2883.546875
675.439453	2892.434570
673.611328	2858.933105
671.781250	2788.540039
669.953125	2837.074951
668.123047	2936.139160
666.292969	2864.411133
664.460938	2854.170654
662.630859	2864.414307
660.798828	2927.887207
658.966797	2883.521484
657.134766	2983.796143
655.302734	2946.258057
653.468750	3005.559082
651.634766	3007.570557
649.800781	2945.518066
647.966797	3027.942139
646.130859	3005.423096
644.294922	3036.034912
642.458984	3032.588623
640.623047	2962.434326
638.787109	2987.589355
636.949219	3020.896729
635.111328	2929.027588
633.273438	3020.817627
631.435547	2956.187744
629.595703	2988.110352
627.757813	2987.398193
625.917969	2990.762695
624.076172	2965.596924
622.236328	2949.949951
620.394531	2949.246582
618.552734	2924.107910
616.710938	2820.263428
614.869141	2845.371338
613.025391	2802.639648
611.183594	2742.296875
609.339844	2789.099365
607.494141	2686.765137
605.650391	2713.229248
603.804688	2692.257813
601.958984	2692.969971
600.113281	2644.927002
598.267578	2600.968750
596.419922	2577.335938
594.572266	2571.307373
592.724609	2507.102783
590.876953	2582.253662
589.027344	2615.445801
587.179688	2571.556396
585.330078	2568.238770
583.480469	2512.218750
581.628906	2568.363037
579.779297	2481.302490
577.927734	2521.221924
576.076172	2546.271240
574.222656	2505.169678
572.371094	2565.296143
570.517578	2567.381348
568.664063	2611.278076
566.810547	2643.017578
564.955078	2680.134033
563.101563	2706.449951
561.246094	2633.037354
559.390625	2641.838135
557.533203	2661.409424
555.677734	2605.564697
553.820313	2567.247314
551.962891	2491.262939
550.105469	2524.306641
548.246094	2510.250244
546.386719	2601.105225
544.527344	2577.624756
542.667969	2614.648193
540.808594	2560.263672
538.947266	2534.121826
537.085938	2542.918701
535.224609	2579.914551
533.363281	2541.701904
531.500000	2541.093750
529.638672	2541.827637
527.775391	2590.862793
525.910156	2641.215820
524.046875	2780.055908
522.181641	3390.775635
520.316406	3979.756104
518.451172	3895.716064
516.585938	3145.838135
514.718750	2759.316406
512.851563	2622.062012
510.984375	2496.922852
509.117188	2489.632324
507.250000	2467.625000
505.380859	2459.006836
503.511719	2428.991943
501.642578	2417.712158
499.771484	2410.448730
497.902344	2353.734619
496.031250	2407.957764
494.160156	2357.950928
492.287109	2418.824951
490.416016	2422.251465
488.542969	2353.586670
486.669922	2409.079102
484.796875	2440.526367
482.921875	2439.941650
481.046875	2324.657959
479.171875	2418.771729
477.296875	2304.881104
475.421875	2313.657959
473.544922	2383.722656
471.667969	2352.512695
469.791016	2333.303955
467.914063	2378.014893
466.035156	2328.192383
464.156250	2428.778076
462.277344	2339.051270
460.398438	2311.886719
458.519531	2294.044189
456.638672	2348.006348
454.757813	2400.613525
452.876953	2410.669434
450.994141	2356.947510
449.113281	2397.559570
447.230469	2288.091553
445.347656	2355.253174
443.462891	2298.940674
441.580078	2310.333008
439.695313	2374.787354
437.810547	2309.225586
435.925781	2295.411621
434.039063	2350.542480
432.152344	2343.352051
430.267578	2360.016846
428.378906	2384.622070
426.492188	2311.204590
424.603516	2364.941162
422.714844	2405.413330
420.826172	2399.542725
418.937500	2404.260254
417.046875	2443.370605
415.158203	2339.624756
413.265625	2336.419434
411.375000	2338.503418
409.484375	2367.018555
407.591797	2303.028809
405.699219	2336.822510
403.806641	2319.093750
401.912109	2294.771729
400.019531	2248.020508
